"time","x","y","position","velocity","acceleration","jerk","heading"
0,585.416,289.823,0,0,0,0,-171.254
0.02,585.263,289.799,0.154582,7.72911,386.455,19322.8,-171.255
0.04,585.11,289.776,0.309013,7.72152,-0.379533,-19341.8,-171.256
0.06,584.957,289.752,0.463595,7.72911,0.379533,37.9533,-171.257
0.08,584.805,289.729,0.618025,7.72152,-0.379533,-37.9533,-171.258
0.1,584.651,289.705,0.773595,7.77851,2.84952,161.453,-171.259
0.12,584.498,289.682,0.928026,7.72152,-2.84952,-284.952,-171.26
0.14,584.228,289.64,1.20168,13.6829,298.069,15045.9,-171.262
0.16,583.859,289.584,1.57489,18.6605,248.88,-2459.43,-171.266
0.18,583.491,289.527,1.9474,18.6255,-1.74897,-12531.5,-171.269
0.2,583.025,289.456,2.41816,23.5378,245.616,12368.2,-171.278
0.22,582.547,289.383,2.90193,24.1886,32.5381,-10653.9,-171.288
0.24,581.995,289.298,3.46064,27.9353,187.336,7739.92,-171.301
0.26,581.421,289.21,4.04141,29.0385,55.1586,-6608.89,-171.315
0.28,580.778,289.112,4.69156,32.5078,173.464,5915.28,-171.337
0.3,580.097,289.009,5.38045,34.4443,96.828,-3831.81,-171.361
0.32,579.376,288.899,6.10948,36.4515,100.356,176.415,-171.39
0.34,578.605,288.783,6.88924,38.9879,126.823,1323.36,-171.425
0.36,577.784,288.658,7.72029,41.5525,128.227,70.1524,-171.468
0.38,576.919,288.53,8.59485,43.728,108.779,-972.396,-171.517
0.4,576.01,288.394,9.51363,45.939,110.549,88.5181,-171.574
0.42,575.055,288.254,10.4786,48.2487,115.484,246.756,-171.638
0.44,574.055,288.107,11.4892,50.5297,114.051,-71.6426,-171.712
0.46,573.011,287.955,12.5441,52.7468,110.855,-159.806,-171.796
0.48,571.923,287.8,13.6433,54.957,110.509,-17.3228,-171.89
0.5,570.792,287.639,14.7856,57.1175,108.026,-124.115,-171.995
0.52,569.611,287.474,15.9784,59.6383,126.039,900.656,-172.113
0.54,568.387,287.306,17.214,61.7783,107.001,-951.904,-172.242
0.56,567.121,287.136,18.4915,63.8755,104.857,-107.212,-172.385
0.58,565.809,286.961,19.8146,66.1571,114.083,461.303,-172.54
0.6,564.453,286.786,21.1817,68.3539,109.84,-212.177,-172.712
0.62,563.055,286.61,22.5908,70.4541,105.006,-241.707,-172.897
0.64,561.611,286.433,24.0457,72.7453,114.564,477.929,-173.099
0.66,560.126,286.255,25.542,74.8181,103.641,-546.174,-173.316
0.68,558.595,286.079,27.083,77.0499,111.587,397.308,-173.55
0.7,557.02,285.905,28.6669,79.1926,107.134,-222.65,-173.8
0.72,555.404,285.733,30.2921,81.2582,103.284,-192.495,-174.068
0.74,553.743,285.564,31.9617,83.4839,111.285,400.04,-174.353
0.76,552.037,285.4,33.6756,85.6922,110.414,-43.5177,-174.656
0.78,550.289,285.241,35.4307,87.7586,103.32,-354.715,-174.976
0.8,548.498,285.089,37.2289,89.9088,107.51,209.501,-175.314
0.82,546.662,284.944,39.0705,92.0767,108.395,44.2343,-175.669
0.84,544.782,284.808,40.9556,94.2548,108.904,25.448,-176.04
0.86,542.857,284.681,42.8845,96.4479,109.657,37.6887,-176.426
0.88,540.888,284.565,44.8564,98.5925,107.227,-121.499,-176.827
0.9,538.875,284.46,46.8727,100.818,111.266,201.906,-177.241
0.92,536.816,284.369,48.9332,103.022,110.235,-51.5521,-177.666
0.94,534.711,284.291,51.0399,105.339,115.825,279.536,-178.098
0.96,532.558,284.228,53.1942,107.712,118.64,140.745,-178.537
0.98,530.358,284.181,55.3947,110.025,115.66,-148.986,-178.977
1,528.109,284.149,57.6438,112.454,121.431,288.528,-179.414
1.02,525.831,284.134,59.9214,113.881,71.3922,-2501.94,-179.838
1.04,523.548,284.135,62.205,114.182,15.0411,-2817.55,179.759
1.06,521.256,284.154,64.4965,114.576,19.6761,231.749,179.383
1.08,518.956,284.185,66.7972,115.031,22.7549,153.941,179.038
1.1,516.646,284.23,69.1074,115.512,24.0685,65.6816,178.729
1.12,514.321,284.288,71.4328,116.268,37.8083,686.988,178.468
1.14,511.984,284.355,73.771,116.91,32.0921,-285.808,178.254
1.16,509.632,284.429,76.1246,117.679,38.4508,317.933,178.096
1.18,507.261,284.511,78.497,118.621,47.1083,432.876,177.999
1.2,504.87,284.595,80.8894,119.619,49.8913,139.152,177.971
1.22,502.459,284.681,83.3019,120.625,50.2812,19.4916,178.016
1.24,500.025,284.763,85.7375,121.78,57.7315,372.515,178.138
1.26,497.565,284.839,88.198,123.024,62.2317,225.013,178.347
1.28,495.082,284.904,90.6824,124.221,59.8464,-119.267,178.64
1.3,492.572,284.956,93.1928,125.519,64.9185,253.607,179.024
1.32,490.033,284.989,95.7318,126.954,71.7124,339.694,179.505
1.34,487.469,284.998,98.2961,128.215,63.0597,-432.637,-179.926
1.36,484.876,284.981,100.889,129.646,71.5485,424.443,-179.258
1.38,482.259,284.93,103.507,130.887,62.035,-475.676,-178.502
1.4,479.616,284.842,106.151,132.201,65.7,183.249,-177.658
1.42,476.951,284.712,108.819,133.389,59.4302,-313.49,-176.73
1.44,474.268,284.536,111.508,134.472,54.1281,-265.102,-175.728
1.46,471.568,284.309,114.217,135.468,49.805,-216.157,-174.658
1.48,468.858,284.028,116.942,136.242,38.7072,-554.892,-173.532
1.5,466.139,283.693,119.682,136.966,36.1905,-125.834,-172.357
1.52,463.418,283.298,122.431,137.456,24.5331,-582.87,-171.147
1.54,460.699,282.845,125.187,137.815,17.9154,-330.886,-169.912
1.56,457.988,282.332,127.947,137.992,8.85177,-453.181,-168.665
1.58,455.287,281.76,130.707,138.031,1.98155,-343.511,-167.416
1.6,452.602,281.129,133.465,137.897,-6.72002,-435.079,-166.175
1.62,449.935,280.443,136.219,137.689,-10.4231,-185.153,-164.952
1.64,447.291,279.702,138.965,137.301,-19.4001,-448.851,-163.754
1.66,444.68,278.912,141.693,136.388,-45.6278,-1311.39,-162.593
1.68,442.14,278.089,144.363,133.515,-143.665,-4901.87,-161.489
1.7,439.676,277.238,146.969,130.312,-160.125,-822.969,-160.446
1.72,437.292,276.368,149.508,126.927,-169.277,-457.607,-159.466
1.74,434.984,275.483,151.98,123.588,-166.947,116.491,-158.551
1.76,432.751,274.586,154.386,120.31,-163.877,153.508,-157.697
1.78,430.59,273.682,156.728,117.101,-160.474,170.158,-156.899
1.8,428.502,272.775,159.005,113.871,-161.491,-50.8686,-156.159
1.82,426.482,271.868,161.219,110.702,-158.43,153.05,-155.473
1.84,424.53,270.964,163.371,107.561,-157.051,68.9312,-154.839
1.86,422.644,270.065,165.46,104.463,-154.913,106.907,-154.252
1.88,420.821,269.176,167.488,101.424,-151.948,148.265,-153.712
1.9,419.06,268.296,169.457,98.4128,-150.565,69.1369,-153.213
1.92,417.359,267.428,171.366,95.4761,-146.835,186.527,-152.755
1.94,415.719,266.576,173.214,92.3858,-154.516,-384.069,-152.335
1.96,414.136,265.739,175.005,89.5582,-141.381,656.771,-151.949
1.98,412.607,264.919,176.74,86.7462,-140.6,39.0176,-151.596
2,411.135,264.118,178.416,83.7867,-147.972,-368.609,-151.274
2.02,409.716,263.335,180.037,81.049,-136.888,554.241,-150.98
2.04,408.35,262.572,181.601,78.2356,-140.666,-188.938,-150.713
2.06,407.033,261.829,183.113,75.5835,-132.607,402.973,-150.468
2.08,405.77,261.111,184.566,72.6315,-147.602,-749.748,-150.25
2.1,404.554,260.413,185.969,70.1556,-123.795,1190.32,-150.051
2.12,403.387,259.738,187.317,67.3931,-138.123,-716.363,-149.872
2.14,402.27,259.087,188.609,64.6206,-138.623,-25.0074,-149.712
2.16,401.199,258.46,189.85,62.0467,-128.696,496.339,-149.568
2.18,400.174,257.857,191.039,59.4588,-129.398,-35.0875,-149.441
2.2,399.195,257.277,192.178,56.9324,-126.319,153.95,-149.325
2.22,398.262,256.722,193.263,54.2511,-134.063,-387.19,-149.226
2.24,397.374,256.193,194.297,51.6885,-128.133,296.493,-149.137
2.26,396.532,255.689,195.278,49.0653,-131.159,-151.293,-149.061
2.28,395.736,255.211,196.207,46.4342,-131.555,-19.8241,-148.995
2.3,394.983,254.758,197.085,43.9006,-126.679,243.786,-148.937
2.32,394.274,254.33,197.913,41.4213,-123.965,135.697,-148.888
2.34,393.605,253.926,198.695,39.0993,-116.099,393.337,-148.846
2.36,392.975,253.545,199.431,36.8062,-114.655,72.1796,-148.809
2.38,392.403,253.198,200.1,33.438,-168.412,-2687.83,-148.782
2.4,391.863,252.872,200.731,31.5508,-94.3582,3702.68,-148.758
2.42,391.364,252.568,201.315,29.2011,-117.488,-1156.47,-148.737
2.44,390.918,252.298,201.836,26.0617,-156.971,-1974.18,-148.722
2.46,390.499,252.042,202.327,24.5439,-75.8872,4054.2,-148.71
2.48,390.141,251.825,202.746,20.9501,-179.69,-5190.15,-148.701
2.5,389.82,251.63,203.122,18.7834,-108.333,3567.85,-148.693
2.52,389.498,251.435,203.498,18.8262,2.13691,5523.51,-148.685
2.54,389.358,251.348,203.663,8.22967,-529.826,-26598.1,-148.684
2.56,389.224,251.267,203.819,7.81508,-20.7294,25454.8,-148.682
2.58,389.092,251.187,203.974,7.73195,-4.15646,828.646,-148.681
2.6,388.959,251.106,204.13,7.80064,3.43466,379.556,-148.68
2.62,388.827,251.026,204.284,7.73195,-3.43466,-343.466,-148.679
2.64,388.694,250.945,204.44,7.75798,1.30165,236.816,-148.678
