"time","x","y","position","velocity","acceleration","jerk","heading"
0,583.931,272.473,0,0,120,0,-171.254
0.02,583.907,272.469,0.0242468,2.4,120,0,-171.254
0.04,583.836,272.458,0.0960629,4.8,120,0,-171.253
0.06,583.717,272.44,0.216028,7.2,120,0,-171.253
0.08,583.551,272.415,0.384016,9.6,120,0,-171.252
0.1,583.338,272.382,0.6,12,120,0,-171.251
0.12,583.077,272.342,0.864007,14.4,120,0,-171.249
0.14,582.769,272.294,1.17601,16.8,120,0,-171.244
0.16,582.413,272.239,1.536,19.2,120,0,-171.238
0.18,582.01,272.177,1.944,21.6,120,0,-171.228
0.2,581.559,272.108,2.4,24,120,0,-171.217
0.22,581.061,272.031,2.904,26.4,120,0,-171.199
0.24,580.515,271.946,3.456,28.8,120,0,-171.177
0.26,579.923,271.854,4.056,31.2,120,0,-171.149
0.28,579.282,271.754,4.704,33.6,120,0,-171.114
0.3,578.595,271.646,5.4,36,120,0,-171.07
0.32,577.86,271.53,6.144,38.4,120,0,-171.017
0.34,577.078,271.406,6.936,40.8,120,0,-170.954
0.36,576.248,271.274,7.776,43.2,120,0,-170.879
0.38,575.371,271.132,8.664,45.6,120,0,-170.791
0.4,574.448,270.982,9.6,48,120,0,-170.688
0.42,573.477,270.821,10.584,50.4,120,0,-170.567
0.44,572.459,270.651,11.616,52.8,120,0,-170.429
0.46,571.394,270.47,12.696,55.2,120,0,-170.27
0.48,570.283,270.278,13.824,57.6,120,0,-170.087
0.5,569.125,270.073,15,60,120,0,-169.88
0.52,567.92,269.856,16.224,62.4,120,0,-169.643
0.54,566.669,269.624,17.496,64.8,120,0,-169.375
0.56,565.373,269.377,18.816,67.2,120,0,-169.074
0.58,564.03,269.114,20.184,69.6,120,0,-168.735
0.6,562.642,268.833,21.6,72,120,0,-168.355
0.62,561.21,268.532,23.064,74.4,120,0,-167.931
0.64,559.732,268.21,24.576,76.8,120,0,-167.461
0.66,558.211,267.865,26.136,79.2,120,0,-166.943
0.68,556.646,267.494,27.744,81.6,120,0,-166.379
0.7,555.039,267.095,29.4,84,120,0,-165.77
0.72,553.39,266.667,31.104,86.4,120,0,-165.124
0.74,551.699,266.208,32.856,88.8,120,0,-164.454
0.76,549.968,265.715,34.656,91.2,120,0,-163.778
0.78,548.197,265.188,36.504,93.6,120,0,-163.12
0.8,546.385,264.628,38.4,96,120,0,-162.51
0.82,544.534,264.035,40.344,98.4,120,0,-161.982
0.84,542.642,263.411,42.336,100.8,120,0,-161.568
0.86,540.708,262.761,44.376,103.2,120,0,-161.29
0.88,538.732,262.089,46.464,105.6,120,0,-161.165
0.9,536.71,261.399,48.6,108,120,0,-161.194
0.92,534.642,260.698,50.784,110.4,120,0,-161.364
0.94,532.525,259.99,53.016,112.8,120,0,-161.657
0.96,530.359,259.279,55.296,115.2,120,0,-162.049
0.98,528.141,258.571,57.624,117.6,120,0,-162.514
1,525.872,257.867,60,120,2.52587e-08,0,-163.028
1.02,523.573,257.177,62.4,120,0,0,-163.567
1.04,521.268,256.509,64.8,120,0,0,-164.109
1.06,518.956,255.862,67.2,120,0,0,-164.645
1.08,516.639,255.238,69.6,120,0,0,-165.167
1.1,514.317,254.633,72,120,0,0,-165.671
1.12,511.989,254.049,74.4,120,0,0,-166.157
1.14,509.656,253.485,76.8,120,0,0,-166.623
1.16,507.319,252.939,79.2,120,0,0,-167.07
1.18,504.978,252.41,81.6,120,0,0,-167.501
1.2,502.633,251.9,84,120,0,0,-167.916
1.22,500.284,251.405,86.4,120,0,0,-168.318
1.24,497.933,250.927,88.8,120,0,0,-168.641
1.26,495.578,250.46,91.2,120,0,0,-168.917
1.28,493.222,250.003,93.6,120,0,0,-169.164
1.3,490.864,249.557,96,120,0,0,-169.382
1.32,488.504,249.119,98.4,120,0,0,-169.569
1.34,486.144,248.687,100.8,120,0,0,-169.722
1.36,483.782,248.262,103.2,120,0,0,-169.838
1.38,481.419,247.84,105.6,120,0,0,-169.914
1.4,479.056,247.42,108,120,0,0,-169.942
1.42,476.693,247.001,110.4,120,0,0,-169.918
1.44,474.33,246.579,112.8,120,0,0,-169.834
1.46,471.968,246.153,115.2,120,0,0,-169.681
1.48,469.608,245.719,117.6,120,0,0,-169.453
1.5,467.25,245.273,120,120,0,0,-169.142
1.52,464.894,244.813,122.4,120,0,0,-168.744
1.54,462.543,244.335,124.799,119.59,-120,0,-168.258
1.56,460.227,243.842,127.167,117.19,-120,0,-167.696
1.58,457.963,243.336,129.487,114.79,-120,0,-167.073
1.6,455.752,242.815,131.759,112.39,-120,0,-166.409
1.62,453.594,242.28,133.982,109.99,-120,0,-165.721
1.64,451.488,241.73,136.158,107.59,-120,0,-165.03
1.66,449.436,241.169,138.286,105.19,-120,0,-164.356
1.68,447.436,240.596,140.366,102.79,-120,0,-163.711
1.7,445.489,240.016,142.398,100.39,-120,0,-163.108
1.72,443.594,239.43,144.381,97.99,-120,0,-162.552
1.74,441.75,238.842,146.317,95.59,-120,0,-162.048
1.76,439.956,238.253,148.205,93.19,-120,0,-161.594
1.78,438.213,237.666,150.045,90.79,-120,0,-161.192
1.8,436.518,237.082,151.837,88.39,-120,0,-160.835
1.82,434.873,236.505,153.58,85.99,-120,0,-160.523
1.84,433.275,235.936,155.276,83.59,-120,0,-160.249
1.86,431.726,235.376,156.924,81.19,-120,0,-160.009
1.88,430.223,234.826,158.524,78.79,-120,0,-159.801
1.9,428.768,234.288,160.076,76.39,-120,0,-159.62
1.92,427.359,233.762,161.579,73.99,-120,0,-159.464
1.94,425.996,233.25,163.035,71.59,-120,0,-159.328
1.96,424.68,232.752,164.443,69.19,-120,0,-159.21
1.98,423.409,232.268,165.803,66.79,-120,0,-159.109
2,422.184,231.799,167.115,64.39,-120,0,-159.021
2.02,421.004,231.346,168.378,61.99,-120,0,-158.946
2.04,419.87,230.908,169.594,59.59,-120,0,-158.882
2.06,418.78,230.487,170.762,57.19,-120,0,-158.826
2.08,417.736,230.082,171.882,54.79,-120,0,-158.778
2.1,416.737,229.694,172.954,52.39,-120,0,-158.738
2.12,415.783,229.322,173.977,49.99,-120,0,-158.704
2.14,414.874,228.968,174.953,47.59,-120,0,-158.675
2.16,414.01,228.63,175.881,45.19,-120,0,-158.651
2.18,413.191,228.31,176.761,42.79,-120,0,-158.631
2.2,412.416,228.006,177.593,40.39,-120,0,-158.614
2.22,411.686,227.721,178.376,37.99,-120,0,-158.6
2.24,411.001,227.452,179.112,35.59,-120,0,-158.589
2.26,410.361,227.201,179.8,33.19,-120,0,-158.58
2.28,409.765,226.967,180.44,30.79,-120,0,-158.573
2.3,409.215,226.751,181.032,28.39,-120,0,-158.567
2.32,408.708,226.552,181.575,25.99,-120,0,-158.562
2.34,408.247,226.371,182.071,23.59,-120,0,-158.559
2.36,407.83,226.207,182.519,21.19,-120,0,-158.557
2.38,407.458,226.061,182.919,18.79,-120,0,-158.555
2.4,407.131,225.933,183.271,16.39,-120,0,-158.554
2.42,406.848,225.821,183.574,13.99,-120,0,-158.553
2.44,406.61,225.728,183.83,11.59,-120,0,-158.553
2.46,406.416,225.652,184.038,9.19,-120,0,-158.553
2.48,406.268,225.594,184.198,6.79,-120,0,-158.552
2.5,406.163,225.553,184.31,4.39,-120,0,-158.552
2.52,406.104,225.529,184.373,1.99,-120,0,-158.552
