"time","x","y","position","velocity","acceleration","jerk","heading"
0,578.316,297.674,0,0,0,0,-144.462
0.02,578.18,297.577,0.16647,8.32352,416.176,20808.8,-144.464
0.04,578.045,297.481,0.332652,8.30909,-0.721803,-20844.9,-144.467
0.06,577.909,297.383,0.499705,8.35266,2.17844,145.012,-144.469
0.08,577.774,297.287,0.666176,8.32352,-1.45663,-181.754,-144.471
0.1,577.638,297.19,0.832646,8.32352,-2.7778e-08,72.8317,-144.473
0.12,577.498,297.089,1.00551,8.64321,15.9843,799.217,-144.475
0.14,577.171,296.857,1.40635,20.0421,569.944,27698,-144.485
0.16,576.845,296.624,1.80777,20.0711,1.45104,-28424.6,-144.495
0.18,576.465,296.352,2.27407,23.315,162.194,8037.16,-144.511
0.2,576.041,296.051,2.79467,26.0298,135.741,-1322.66,-144.531
0.22,575.567,295.713,3.37649,29.091,153.06,865.971,-144.562
0.24,575.064,295.355,3.99343,30.8472,87.8083,-3262.6,-144.601
0.26,574.498,294.954,4.68736,34.6962,192.452,5232.21,-144.652
0.28,573.896,294.526,5.42641,36.9524,112.806,-3982.31,-144.713
0.3,573.253,294.072,6.21408,39.3836,121.564,437.899,-144.788
0.32,572.568,293.589,7.05172,41.8823,124.931,168.336,-144.882
0.34,571.839,293.078,7.94132,44.4796,129.868,246.856,-144.991
0.36,571.067,292.539,8.88334,47.1011,131.075,60.3368,-145.121
0.38,570.253,291.973,9.87496,49.581,123.994,-354.021,-145.277
0.4,569.397,291.381,10.9159,52.0475,123.324,-33.5073,-145.456
0.42,568.498,290.765,12.0056,54.4836,121.804,-76.0313,-145.663
0.44,567.56,290.127,13.1401,56.7236,112.001,-490.134,-145.902
0.46,566.58,289.467,14.3213,59.0626,116.949,247.396,-146.17
0.48,565.561,288.786,15.5473,61.299,111.821,-256.372,-146.479
0.5,564.497,288.086,16.8203,63.6499,117.546,286.21,-146.826
0.52,563.396,287.372,18.1334,65.6545,100.228,-865.882,-147.216
0.54,562.25,286.64,19.4927,67.9654,115.547,765.93,-147.654
0.56,561.066,285.897,20.89,69.8673,95.0954,-1022.55,-148.141
0.58,559.839,285.142,22.331,72.0474,109.006,695.54,-148.686
0.6,558.573,284.381,23.8078,73.8432,89.7913,-960.747,-149.288
0.62,557.267,283.615,25.3224,75.7273,94.2034,220.606,-149.954
0.64,555.918,282.846,26.8751,77.6363,95.4491,62.2845,-150.691
0.66,554.53,282.079,28.4614,79.3165,84.0108,-571.918,-151.5
0.68,553.101,281.316,30.0809,80.9721,82.7792,-61.5799,-152.388
0.7,551.631,280.563,31.7321,82.5633,79.5615,-160.883,-153.359
0.72,550.12,279.823,33.4149,84.1376,78.7144,-42.355,-154.416
0.74,548.569,279.099,35.1265,85.58,72.1209,-329.676,-155.566
0.76,546.975,278.396,36.8687,87.1087,76.4345,215.678,-156.808
0.78,545.341,277.718,38.6379,88.462,67.6666,-438.395,-158.146
0.8,543.664,277.068,40.4364,89.9228,73.0401,268.676,-159.575
0.82,541.943,276.453,42.2645,91.4056,74.137,54.8483,-161.096
0.84,540.173,275.874,44.1266,93.1083,85.134,549.848,-162.7
0.86,538.354,275.337,46.0228,94.8076,84.966,-8.4016,-164.374
0.88,536.481,274.843,47.9598,96.85,102.12,857.679,-166.104
0.9,534.55,274.397,49.9422,99.1198,113.49,568.509,-167.869
0.92,532.552,274,51.9785,101.817,134.884,1069.69,-169.641
0.94,530.483,273.655,54.0764,104.895,153.856,948.64,-171.392
0.96,528.332,273.362,56.2468,108.52,181.252,1369.78,-173.089
0.98,526.093,273.124,58.4988,112.597,203.855,1130.17,-174.694
1,523.757,272.938,60.8419,117.158,228.074,1210.92,-176.175
1.02,521.339,272.805,63.2642,121.116,197.866,-1510.4,-177.484
1.04,518.857,272.72,65.7478,124.18,153.227,-2231.95,-178.582
1.06,516.312,272.679,68.2931,127.265,154.263,51.8073,-179.462
1.08,513.702,272.67,70.9029,130.487,161.106,342.157,179.879
1.1,511.026,272.687,73.5785,133.781,164.662,177.801,179.448
1.12,508.285,272.719,76.3204,137.094,165.649,49.3674,179.246
1.14,505.482,272.757,79.1229,140.128,151.737,-695.617,179.254
1.16,502.621,272.79,81.9842,143.063,146.726,-250.56,179.469
1.18,499.705,272.807,84.9006,145.82,137.87,-442.781,179.872
1.2,496.754,272.801,87.8515,147.543,86.1488,-2586.06,-179.557
1.22,493.816,272.76,90.7895,146.899,-32.1954,-5917.21,-178.841
1.24,490.904,272.681,93.7025,145.652,-62.3836,-1509.41,-178.02
1.26,488.024,272.559,96.5852,144.138,-75.6982,-665.73,-177.111
1.28,485.185,272.392,99.429,142.19,-97.3965,-1084.91,-176.14
1.3,482.393,272.179,102.229,140.009,-109.05,-582.69,-175.129
1.32,479.655,271.921,104.98,137.517,-124.576,-776.31,-174.095
1.34,476.976,271.619,107.676,134.801,-135.832,-562.798,-173.056
1.36,474.361,271.277,110.313,131.883,-145.884,-502.565,-172.024
1.38,471.813,270.897,112.889,128.809,-153.696,-390.595,-171.012
1.4,469.335,270.484,115.401,125.591,-160.88,-359.197,-170.027
1.42,466.929,270.04,117.848,122.351,-162.045,-58.2879,-169.078
1.44,464.597,269.57,120.226,118.907,-172.157,-505.58,-168.169
1.46,462.341,269.08,122.535,115.438,-173.462,-65.2552,-167.307
1.48,460.159,268.572,124.776,112.025,-170.659,140.141,-166.489
1.5,458.053,268.051,126.945,108.461,-178.223,-378.178,-165.723
1.52,456.021,267.52,129.045,105.012,-172.419,290.193,-165.003
1.54,454.066,266.984,131.072,101.357,-182.743,-516.225,-164.335
1.56,452.183,266.445,133.032,97.9682,-169.451,664.597,-163.713
1.58,450.372,265.905,134.921,94.4572,-175.552,-305.012,-163.14
1.6,448.63,265.368,136.744,91.1568,-165.022,526.494,-162.61
1.62,446.963,264.839,138.493,87.4306,-186.309,-1064.36,-162.128
1.64,445.361,264.315,140.178,84.2661,-158.223,1404.29,-161.684
1.66,443.831,263.803,141.792,80.7047,-178.073,-992.504,-161.284
1.68,442.363,263.301,143.343,77.5755,-156.458,1080.75,-160.918
1.7,440.967,262.813,144.823,73.9541,-181.068,-1230.5,-160.594
1.72,439.63,262.337,146.241,70.9461,-150.404,1533.23,-160.297
1.74,438.358,261.879,147.593,67.5869,-167.956,-877.589,-160.037
1.76,437.152,261.438,148.877,64.2009,-169.303,-67.3629,-159.805
1.78,436.006,261.014,150.099,61.0976,-155.167,706.805,-159.601
1.8,434.92,260.608,151.259,57.9769,-156.031,-43.2353,-159.423
1.82,433.893,260.221,152.356,54.8473,-156.482,-22.5509,-159.266
1.84,432.928,259.853,153.389,51.6748,-158.624,-107.093,-159.133
1.86,432.02,259.507,154.361,48.5859,-154.443,209.075,-159.019
1.88,431.17,259.18,155.272,45.544,-152.099,117.18,-158.922
1.9,430.376,258.873,156.123,42.5597,-149.212,144.36,-158.84
1.92,429.632,258.584,156.921,39.895,-133.234,798.92,-158.774
1.94,428.957,258.322,157.645,36.1931,-185.095,-2593.09,-158.72
1.96,428.338,258.08,158.31,33.2487,-147.222,1893.64,-158.677
1.98,427.752,257.851,158.938,31.439,-90.4851,2836.86,-158.641
2,427.256,257.657,159.471,26.6457,-239.664,-7458.93,-158.618
2.02,426.778,257.471,159.984,25.6185,-51.3584,9415.26,-158.598
2.04,426.399,257.321,160.392,20.3916,-261.346,-10499.4,-158.585
2.06,426.019,257.172,160.799,20.3916,2.59355e-06,13067.3,-158.572
2.08,425.794,257.085,161.041,12.0873,-415.218,-20760.9,-158.567
2.1,425.639,257.022,161.209,8.37588,-185.57,11482.4,-158.565
2.12,425.482,256.961,161.377,8.40398,1.40535,9348.76,-158.563
2.14,425.326,256.9,161.545,8.40398,-7.03163e-08,-70.2676,-158.561
2.16,425.169,256.839,161.713,8.40398,-7.21344e-08,-9.09051e-08,-158.559
2.18,425.013,256.777,161.88,8.35744,-2.32733,-116.367,-158.557
