"time","x","y","position","velocity","acceleration","jerk","heading"
0,585.979,270.545,0,0,100,0,-146.889
0.02,585.861,270.468,0.141421,2,100,0,-146.89
0.04,585.742,270.39,0.282843,4,100,0,-146.891
0.06,585.624,270.313,0.424264,6,100,0,-146.892
0.08,585.505,270.236,0.565685,8,100,0,-146.893
0.1,585.387,270.159,0.707107,10,100,0,-146.894
0.12,585.268,270.081,0.848528,12,100,0,-146.896
0.14,585.15,270.004,0.989949,14,100,0,-146.897
0.16,584.876,269.826,1.31716,16,100,0,-146.902
0.18,584.59,269.639,1.65858,18,100,0,-146.907
0.2,584.304,269.453,2,20,100,0,-146.913
0.22,583.931,269.21,2.44495,22,100,0,-146.923
0.24,583.558,268.967,2.8899,24,100,0,-146.934
0.26,583.133,268.69,3.39719,26,100,0,-146.952
0.28,582.69,268.402,3.92498,28,100,0,-146.972
0.3,582.197,268.082,4.51392,30,100,0,-146.999
0.32,581.684,267.749,5.12498,32,100,0,-147.028
0.34,581.128,267.388,5.78762,34,100,0,-147.064
0.36,580.539,267.007,6.48963,36,100,0,-147.109
0.38,579.92,266.607,7.22583,38,100,0,-147.161
0.4,579.27,266.188,8,40,100,0,-147.219
0.42,578.576,265.742,8.82426,42,100,0,-147.288
0.44,577.851,265.277,9.68568,44,100,0,-147.369
0.46,577.093,264.792,10.5858,46,100,0,-147.461
0.48,576.3,264.287,11.5254,48,100,0,-147.562
0.5,575.473,263.763,12.505,50,100,0,-147.679
0.52,574.611,263.218,13.5246,52,100,0,-147.81
0.54,573.714,262.655,14.5842,54,100,0,-147.955
0.56,572.781,262.073,15.6835,56,100,0,-148.118
0.58,571.813,261.473,16.8222,58,100,0,-148.3
0.6,570.81,260.856,18,60,100,0,-148.498
0.62,569.767,260.219,19.2222,62,100,0,-148.722
0.64,568.688,259.567,20.483,64,100,0,-148.967
0.66,567.573,258.9,21.782,66,100,0,-149.234
0.68,566.421,258.218,23.1211,68,100,0,-149.53
0.7,565.228,257.52,24.5026,70,100,0,-149.852
0.72,564,256.812,25.9207,72,100,0,-150.204
0.74,562.729,256.09,27.3821,74,100,0,-150.59
0.76,561.421,255.358,28.8809,76,100,0,-151.007
0.78,560.07,254.617,30.422,78,100,0,-151.465
0.8,558.681,253.869,32,80,100,0,-151.956
0.82,557.246,253.113,33.6218,82,100,0,-152.496
0.84,555.77,252.354,35.2814,84,100,0,-153.076
0.86,554.251,251.593,36.9801,86,100,0,-153.701
0.88,552.686,250.83,38.7213,88,100,0,-154.38
0.9,551.076,250.071,40.5015,90,100,0,-155.108
0.92,549.42,249.316,42.3213,92,100,0,-155.891
0.94,547.717,248.569,44.1808,94,100,0,-156.728
0.96,545.967,247.832,46.0804,96,100,0,-157.621
0.98,544.167,247.108,48.0201,98,100,0,-158.575
1,542.318,246.401,50,100,1.80508e-06,0,-159.584
1.02,540.437,245.72,52,100,0,0,-160.637
1.04,538.544,245.075,54,100,0,0,-161.721
1.06,536.639,244.466,56,100,0,0,-162.828
1.08,534.723,243.894,58,100,0,0,-163.949
1.1,532.795,243.36,60,100,0,0,-165.079
1.12,530.858,242.864,62,100,0,0,-166.206
1.14,528.911,242.406,64,100,0,0,-167.321
1.16,526.956,241.986,66,100,0,0,-168.413
1.18,524.993,241.603,68,100,0,0,-169.473
1.2,523.023,241.255,70,100,0,0,-170.489
1.22,521.048,240.941,72,100,0,0,-171.452
1.24,519.068,240.66,74,100,0,0,-172.351
1.26,517.084,240.408,76,100,0,0,-173.179
1.28,515.096,240.184,78,100,0,0,-173.93
1.3,513.106,239.984,80,100,0,0,-174.599
1.32,511.114,239.807,82,100,0,0,-175.184
1.34,509.121,239.648,84,100,0,0,-175.682
1.36,507.126,239.505,86,100,0,0,-176.094
1.38,505.13,239.374,88,100,0,0,-176.417
1.4,503.134,239.254,90,100,0,0,-176.656
1.42,501.137,239.14,92,100,0,0,-176.815
1.44,499.14,239.031,94,100,0,0,-176.899
1.46,497.143,238.923,96,100,0,0,-176.914
1.48,495.146,238.815,98,100,0,0,-176.859
1.5,493.149,238.703,100,100,0,0,-176.745
1.52,491.152,238.587,102,100,0,0,-176.579
1.54,489.156,238.464,104,100,0,0,-176.365
1.56,487.16,238.333,106,100,0,0,-176.107
1.58,485.165,238.192,108,100,0,0,-175.814
1.6,483.171,238.041,110,100,0,0,-175.49
1.62,481.178,237.878,112,100,-8.19871e-07,0,-175.14
1.64,479.19,237.702,113.995,99,-100,0,-174.771
1.66,477.239,237.517,115.955,97,-100,0,-174.393
1.68,475.33,237.323,117.874,95,-100,0,-174.012
1.7,473.461,237.121,119.754,93,-100,0,-173.632
1.72,471.633,236.911,121.594,91,-100,0,-173.257
1.74,469.847,236.694,123.393,89,-100,0,-172.889
1.76,468.1,236.471,125.154,87,-100,0,-172.53
1.78,466.395,236.242,126.874,85,-100,0,-172.182
1.8,464.733,236.008,128.553,83,-100,0,-171.847
1.82,463.109,235.771,130.194,81,-100,0,-171.526
1.84,461.528,235.531,131.794,79,-100,0,-171.219
1.86,459.987,235.289,133.353,77,-100,0,-170.927
1.88,458.486,235.046,134.874,75,-100,0,-170.649
1.9,457.027,234.802,136.353,73,-100,0,-170.389
1.92,455.607,234.558,137.793,71,-100,0,-170.142
1.94,454.229,234.316,139.193,69,-100,0,-169.912
1.96,452.891,234.075,140.552,67,-100,0,-169.696
1.98,451.591,233.837,141.874,65,-100,0,-169.494
2,450.334,233.601,143.153,63,-100,0,-169.308
2.02,449.117,233.37,144.392,61,-100,0,-169.135
2.04,447.939,233.142,145.592,59,-100,0,-168.976
2.06,446.8,232.918,146.752,57,-100,0,-168.83
2.08,445.701,232.7,147.873,55,-100,0,-168.695
2.1,444.641,232.487,148.954,53,-100,0,-168.574
2.12,443.621,232.279,149.995,51,-100,0,-168.462
2.14,442.641,232.079,150.995,49,-100,0,-168.362
2.16,441.702,231.884,151.954,47,-100,0,-168.273
2.18,440.803,231.697,152.872,45,-100,0,-168.193
2.2,439.944,231.517,153.75,43,-100,0,-168.122
2.22,439.124,231.344,154.588,41,-100,0,-168.06
2.24,438.342,231.178,155.387,39,-100,0,-168.005
2.26,437.596,231.019,156.15,37,-100,0,-167.957
2.28,436.892,230.869,156.871,35,-100,0,-167.914
2.3,436.233,230.728,157.544,33,-100,0,-167.881
2.32,435.605,230.592,158.187,31,-100,0,-167.851
2.34,435.019,230.466,158.786,29,-100,0,-167.826
2.36,434.479,230.349,159.339,27,-100,0,-167.805
2.38,433.963,230.238,159.867,25,-100,0,-167.787
2.4,433.507,230.139,160.333,23,-100,0,-167.775
2.42,433.073,230.045,160.778,21,-100,0,-167.765
2.44,432.688,229.961,161.171,19,-100,0,-167.757
2.46,432.355,229.889,161.512,17,-100,0,-167.751
2.48,432.021,229.817,161.854,15,-100,0,-167.746
2.5,431.799,229.768,162.081,13,-100,0,-167.743
2.52,431.661,229.738,162.222,11,-100,0,-167.742
2.54,431.523,229.708,162.364,9,-100,0,-167.741
2.56,431.384,229.678,162.505,7,-100,0,-167.74
2.58,431.246,229.648,162.646,5,-100,0,-167.739
2.6,431.108,229.618,162.788,3,-100,0,-167.738
2.62,430.97,229.588,162.929,1,-100,0,-167.737
