"time","x","y","position","velocity","acceleration","jerk","heading"
0,360.095,248.564,0,0,0,0,92.2026
0.02,360.094,248.576,0.0120201,0.601003,30.0502,1502.51,92.2025
0.04,360.093,248.612,0.0479477,1.79638,59.769,1485.94,92.2021
0.06,360.091,248.671,0.107852,2.9952,59.9408,8.58931,92.2015
0.08,360.087,248.755,0.191774,4.19614,60.0469,5.30388,92.2007
0.1,360.083,248.863,0.299611,5.39185,59.7855,-13.0704,92.1996
0.12,360.078,248.995,0.431404,6.58964,59.8899,5.21958,92.1982
0.14,360.072,249.149,0.586197,7.73964,57.4997,-119.51,92.1967
0.16,360.065,249.329,0.765471,8.96369,61.2028,185.155,92.1927
0.18,360.058,249.531,0.968298,10.1413,58.8823,-116.023,92.1867
0.2,360.049,249.758,1.19501,11.3356,59.7126,41.517,92.1799
0.22,360.039,250.008,1.44505,12.5021,58.3275,-69.2541,92.1699
0.24,360.029,250.281,1.71832,13.6636,58.0709,-12.8341,92.1564
0.26,360.018,250.576,2.01416,14.792,56.4213,-82.4785,92.1408
0.28,360.007,250.896,2.33366,15.9751,59.1548,136.675,92.1189
0.3,359.994,251.238,2.67654,17.1438,58.4349,-35.9972,92.094
0.32,359.98,251.603,3.04186,18.2661,56.1178,-115.853,92.0618
0.34,359.966,251.99,3.42894,19.3539,54.3901,-86.3844,92.0239
0.36,359.952,252.401,3.83964,20.5349,59.0467,232.83,91.9795
0.38,359.937,252.833,4.27206,21.621,54.3057,-237.051,91.9246
0.4,359.922,253.287,4.72661,22.7277,55.3333,51.3791,91.8611
0.42,359.907,253.762,5.20201,23.7698,52.1082,-161.256,91.7875
0.44,359.892,254.26,5.69978,24.8888,55.9481,191.998,91.7018
0.46,359.877,254.778,6.21822,25.9219,51.656,-214.604,91.6008
0.48,359.863,255.317,6.75729,26.9533,51.5714,-4.22947,91.4842
0.5,359.849,255.876,7.31657,27.9643,50.5494,-51.0999,91.3501
0.52,359.835,256.454,7.89458,28.9005,46.807,-187.125,91.1963
0.54,359.824,257.052,8.49274,29.9078,50.3653,177.915,91.0202
0.56,359.815,257.668,9.1091,30.8181,45.5186,-242.333,90.8174
0.58,359.806,258.303,9.7435,31.7198,45.0858,-21.6377,90.587
0.6,359.801,258.955,10.3956,32.6035,44.1805,-45.2663,90.3274
0.62,359.799,259.624,11.0646,33.451,42.3761,-90.2188,90.0352
0.64,359.801,260.309,11.7502,34.2792,41.4088,-48.3662,89.7085
0.66,359.806,261.012,12.4527,35.1245,42.2684,42.9813,89.3488
0.68,359.817,261.732,13.1728,36.0056,44.054,89.2781,88.9592
0.7,359.833,262.47,13.9116,36.9426,46.8474,139.67,88.5447
0.72,359.855,263.229,14.6708,37.961,50.9235,203.805,88.1172
0.74,359.884,264.013,15.4554,39.2262,63.2584,616.745,87.6901
0.76,359.919,264.824,16.2669,40.5746,67.4217,208.165,87.2802
0.78,359.962,265.657,17.1013,41.7228,57.4093,-500.618,86.9102
0.8,360.009,266.483,17.9282,41.3434,-18.9728,-3819.11,86.6059
0.82,360.059,267.299,18.746,40.8907,-22.6335,-183.038,86.3702
0.84,360.112,268.105,19.5538,40.3902,-25.0239,-119.517,86.1986
0.86,360.165,268.899,20.3496,39.7888,-30.0695,-252.281,86.0823
0.88,360.22,269.679,21.1308,39.0617,-36.3539,-314.22,86.0093
0.9,360.274,270.443,21.8971,38.3157,-37.3009,-47.3514,85.9788
0.92,360.326,271.189,22.6455,37.4178,-44.8986,-379.885,85.9767
0.94,360.377,271.917,23.3752,36.488,-46.4873,-79.4355,85.9951
0.96,360.426,272.623,24.0828,35.3785,-55.4759,-449.428,86.0269
0.98,360.473,273.307,24.7684,34.2788,-54.9857,24.5094,86.0687
1,360.519,273.968,25.4311,33.1353,-57.1743,-109.433,86.1158
1.02,360.561,274.607,26.0711,32.0025,-56.637,26.8685,86.1652
1.04,360.602,275.221,26.6862,30.753,-62.4786,-292.079,86.215
1.06,360.641,275.811,27.2779,29.587,-58.2971,209.072,86.2637
1.08,360.678,276.377,27.8452,28.3637,-61.166,-143.444,86.3103
1.1,360.713,276.918,28.3867,27.0764,-64.3647,-159.934,86.3541
1.12,360.746,277.434,28.9045,25.889,-59.3718,249.644,86.3948
1.14,360.776,277.926,29.3974,24.6431,-62.2966,-146.242,86.4316
1.16,360.805,278.393,29.8654,23.4013,-62.0868,10.4917,86.4646
1.18,360.832,278.836,30.3086,22.1588,-62.125,-1.90977,86.4943
1.2,360.858,279.253,30.727,20.9223,-61.8274,14.8821,86.5204
1.22,360.882,279.646,31.1205,19.6722,-62.5016,-33.7141,86.5425
1.24,360.904,280.015,31.4904,18.4976,-58.7322,188.47,86.5624
1.26,360.924,280.359,31.8344,17.1975,-65.0039,-313.582,86.578
1.28,360.943,280.678,32.154,15.9805,-60.8509,207.648,86.5921
1.3,360.961,280.973,32.4497,14.7865,-59.7013,57.4822,86.6022
1.32,360.977,281.243,32.7202,13.5241,-63.1191,-170.891,86.6115
1.34,360.991,281.488,32.966,12.288,-61.8063,65.6379,86.6178
1.36,361.005,281.71,33.1884,11.1219,-58.3026,175.184,86.6227
1.38,361.017,281.907,33.3857,9.86469,-62.8609,-227.912,86.627
1.4,361.027,282.081,33.5595,8.68815,-58.8272,201.684,86.6292
1.42,361.036,282.23,33.709,7.47651,-60.5819,-87.7355,86.6304
1.44,361.043,282.354,33.8334,6.22065,-62.7931,-110.561,86.6314
1.46,361.049,282.455,33.9348,5.06752,-57.6562,256.847,86.6322
1.48,361.053,282.533,34.012,3.86166,-60.2934,-131.859,86.6328
1.5,361.056,282.585,34.0642,2.60863,-62.6512,-117.89,86.6332
1.52,361.058,282.612,34.0913,1.35585,-62.639,0.607226,86.6334
