"time","x","y","position","velocity","acceleration","jerk","heading"
0,325.607,252.041,0,0,0,0,37.405
0.02,325.623,252.053,0.0200431,1.00216,50.1078,2505.39,37.4048
0.04,325.671,252.09,0.0807562,3.03565,101.675,2578.35,37.4043
0.06,325.75,252.151,0.18013,4.96871,96.653,-251.093,37.4035
0.08,325.862,252.236,0.320196,7.00328,101.729,253.777,37.4023
0.1,326.005,252.346,0.500933,9.03684,101.678,-2.5435,37.4008
0.12,326.18,252.479,0.721643,11.0355,99.9326,-87.2557,37.3966
0.14,326.389,252.638,0.983474,13.0916,102.805,143.641,37.39
0.16,326.628,252.822,1.28514,15.083,99.5722,-161.659,37.3805
0.18,326.901,253.03,1.62842,17.164,104.048,223.769,37.3663
0.2,327.206,253.263,2.01234,19.1961,101.604,-122.197,37.3463
0.22,327.545,253.521,2.43813,21.2899,104.692,154.421,37.3204
0.24,327.916,253.805,2.9057,23.3782,104.415,-13.8345,37.2863
0.26,328.322,254.114,3.41553,25.4913,105.655,61.9968,37.2417
0.28,328.762,254.447,3.96707,27.5774,104.306,-67.4879,37.1863
0.3,329.235,254.806,4.56136,29.7143,106.842,126.842,37.1182
0.32,329.744,255.191,5.19955,31.9093,109.753,145.508,37.0357
0.34,330.288,255.6,5.88064,34.0549,107.278,-123.751,36.9369
0.36,330.869,256.036,6.60619,36.2771,111.112,191.724,36.8184
0.38,331.486,256.497,7.37635,38.5081,111.55,21.9058,36.6794
0.4,332.14,256.982,8.19088,40.7267,110.926,-31.1827,36.5183
0.42,332.832,257.493,9.0515,43.0309,115.214,214.372,36.3309
0.44,333.564,258.029,9.95788,45.319,114.402,-40.6048,36.116
0.46,334.335,258.589,10.9109,47.6485,116.478,103.819,35.8698
0.48,335.146,259.173,11.9109,50.0029,117.716,61.9109,35.5911
0.5,336,259.782,12.9593,52.4206,120.889,158.626,35.2741
0.52,336.898,260.412,14.0563,54.8508,121.507,30.9217,34.9173
0.54,337.84,261.065,15.2026,57.3119,123.055,77.3908,34.5169
0.56,338.829,261.739,16.3994,59.8437,126.592,176.864,34.0689
0.58,339.865,262.433,17.6468,62.3682,126.224,-18.4349,33.5691
0.6,340.951,263.147,18.9465,64.9848,130.828,230.222,33.0132
0.62,342.09,263.878,20.2996,67.6567,133.598,138.484,32.3967
0.64,343.283,264.625,21.7074,70.3855,136.436,141.922,31.7125
0.66,344.532,265.386,23.1698,73.1223,136.844,20.3864,30.9572
0.68,345.841,266.158,24.6893,75.9763,142.697,292.645,30.1241
0.7,347.212,266.939,26.2668,78.8729,144.828,106.567,29.2075
0.72,348.647,267.725,27.9037,81.8447,148.592,188.188,28.1992
0.74,350.152,268.514,29.6027,84.9531,155.419,341.334,27.0941
0.76,351.727,269.299,31.3629,88.0061,152.653,-138.267,25.885
0.78,353.378,270.077,33.1879,91.2523,162.307,482.661,24.5633
0.8,355.107,270.842,35.0779,94.4977,162.273,-1.67595,23.1252
0.82,356.915,271.585,37.0331,97.7611,163.168,44.7476,21.5686
0.84,358.808,272.301,39.0572,101.205,172.219,452.566,19.8804
0.86,360.786,272.981,41.1482,104.549,167.154,-253.251,18.0641
0.88,362.849,273.616,43.3072,107.952,170.167,150.618,16.1201
0.9,364.999,274.196,45.5336,111.321,168.463,-85.165,14.0513
0.92,367.231,274.71,47.8242,114.529,160.403,-403.024,11.8649
0.94,369.543,275.148,50.1775,117.665,156.813,-179.495,9.57368
0.96,371.93,275.5,52.5904,120.646,149.026,-389.367,7.19528
0.98,374.383,275.757,55.0565,123.305,132.94,-804.262,4.75226
1,376.893,275.91,57.571,125.723,120.932,-600.433,2.2711
1.02,379.449,275.956,60.1274,127.821,104.868,-803.189,-0.216221
1.04,382.038,275.891,62.7176,129.511,84.498,-1018.5,-2.67785
1.06,384.65,275.712,65.3361,130.925,70.7047,-689.662,-5.08409
1.08,387.273,275.425,67.9747,131.927,50.1218,-1029.15,-7.39845
1.1,389.898,275.032,70.6289,132.709,39.1052,-550.831,-9.59822
1.12,392.517,274.54,73.2931,133.213,25.158,-697.359,-11.6585
1.14,395.121,273.957,75.9624,133.464,12.5969,-628.055,-13.559
1.16,397.71,273.29,78.6351,133.636,8.55233,-202.229,-15.2892
1.18,400.279,272.55,81.309,133.692,2.84557,-285.338,-16.8358
1.2,402.828,271.744,83.9819,133.647,-2.26174,-255.365,-18.1968
1.22,405.337,270.891,86.6323,132.52,-56.3503,-2704.43,-19.359
1.24,407.789,270.005,89.2392,130.344,-108.792,-2622.09,-20.3205
1.26,410.189,269.097,91.8062,128.347,-99.8452,447.342,-21.0926
1.28,412.543,268.174,94.3339,126.387,-98.0435,90.085,-21.687
1.3,414.855,267.244,96.8259,124.602,-89.2512,439.616,-22.1117
1.32,417.13,266.312,99.2844,122.924,-83.8559,269.764,-22.3839
1.34,419.372,265.385,101.711,121.314,-80.5352,166.032,-22.5054
1.36,421.586,264.469,104.107,119.813,-75.0178,275.87,-22.4902
1.38,423.776,263.564,106.476,118.449,-68.1986,340.96,-22.3477
1.4,425.946,262.678,108.82,117.197,-62.6372,278.074,-22.0859
1.42,428.098,261.813,111.14,116.001,-59.7896,142.38,-21.7143
1.44,430.237,260.97,113.438,114.919,-54.0858,285.19,-21.2422
1.46,432.364,260.155,115.716,113.897,-51.118,148.388,-20.6776
1.48,434.483,259.369,117.977,113.031,-43.3081,390.496,-20.0312
1.5,436.597,258.613,120.222,112.243,-39.383,196.252,-19.311
1.52,438.707,257.889,122.453,111.561,-34.1091,263.697,-18.5282
1.54,440.817,257.199,124.673,110.985,-28.8047,265.218,-17.6922
1.56,442.928,256.543,126.883,110.536,-22.4128,319.594,-16.8139
1.58,445.043,255.922,129.087,110.205,-16.5656,292.361,-15.9043
1.6,447.163,255.337,131.287,109.954,-12.5616,200.203,-14.9738
1.62,449.291,254.786,133.484,109.893,-3.04077,476.039,-14.0339
1.64,451.427,254.271,135.682,109.883,-0.507199,126.679,-13.0953
1.66,453.574,253.79,137.882,110.019,6.79307,365.013,-12.1686
1.68,455.735,253.342,140.089,110.308,14.4471,382.701,-11.2696
1.7,457.935,252.918,142.33,112.064,87.8211,3668.7,-10.5363
1.72,460.164,252.517,144.594,113.215,57.5197,-1515.07,-9.90702
1.74,462.415,252.134,146.878,114.195,49.0142,-425.278,-9.36423
1.76,464.684,251.771,149.176,114.882,34.3726,-732.079,-8.8927
1.78,466.969,251.422,151.487,115.58,34.8832,25.5318,-8.48048
1.8,469.267,251.086,153.809,116.099,25.9299,-447.667,-8.11748
1.82,471.574,250.764,156.139,116.478,18.9612,-348.435,-7.79492
1.84,473.891,250.453,158.477,116.89,20.5894,81.4095,-7.50496
1.86,476.214,250.153,160.819,117.14,12.5414,-402.398,-7.24034
1.88,478.544,249.862,163.167,117.369,11.4363,-55.2553,-6.99417
1.9,480.877,249.58,165.517,117.49,6.02284,-270.674,-6.75966
1.92,483.21,249.309,167.866,117.476,-0.666987,-334.491,-6.52992
1.94,485.546,249.046,170.216,117.499,1.1515,90.9241,-6.29784
1.96,487.88,248.793,172.564,117.393,-5.32022,-323.586,-6.05586
1.98,490.212,248.551,174.909,117.24,-7.65874,-116.926,-5.79583
2,492.539,248.321,177.246,116.885,-17.7197,-503.046,-5.50853
2.02,494.858,248.103,179.576,116.476,-20.4545,-136.743,-5.18399
2.04,497.169,247.901,181.896,115.988,-24.3985,-197.2,-4.81121
2.06,499.469,247.716,184.203,115.365,-31.1624,-338.195,-4.37757
2.08,501.752,247.552,186.492,114.467,-44.8868,-686.218,-3.86804
2.1,504.02,247.41,188.764,113.592,-43.7722,55.7286,-3.27024
2.12,506.265,247.295,191.013,112.435,-57.8475,-703.765,-2.56758
2.14,508.486,247.21,193.235,111.094,-67.0202,-458.634,-1.74253
2.16,510.677,247.162,195.427,109.607,-74.3492,-366.452,-0.780156
2.18,512.838,247.153,197.587,108.027,-79.0209,-233.582,0.330886
2.2,514.954,247.188,199.704,105.808,-110.954,-1596.64,1.6029
2.22,517,247.27,201.751,102.388,-171.007,-3002.68,3.01386
2.24,518.976,247.4,203.732,99.021,-168.345,133.115,4.55223
2.26,520.884,247.579,205.648,95.8034,-160.877,373.381,6.20317
2.28,522.727,247.807,207.506,92.8958,-145.378,774.955,7.93819
2.3,524.513,248.085,209.313,90.35,-127.291,904.383,9.72468
2.32,526.245,248.409,211.075,88.121,-111.451,791.997,11.531
2.34,527.93,248.781,212.801,86.2894,-91.5807,993.501,13.321
2.36,529.575,249.197,214.497,84.8219,-73.3744,910.317,15.0645
2.38,531.183,249.655,216.169,83.5716,-62.514,543.017,16.7366
2.4,532.757,250.152,217.82,82.5672,-50.2228,614.56,18.3149
2.42,534.302,250.686,219.454,81.6994,-43.3893,341.677,19.7897
2.44,535.818,251.252,221.073,80.9392,-38.0112,268.904,21.1538
2.46,537.306,251.847,222.675,80.1082,-41.549,-176.889,22.4048
2.48,538.766,252.466,224.261,79.2865,-41.0817,23.3644,23.5443
2.5,540.198,253.106,225.83,78.4668,-40.9875,4.71177,24.5768
2.52,541.604,253.763,227.382,77.5902,-43.8309,-142.174,25.5093
2.54,542.98,254.433,228.912,76.5209,-53.4639,-481.646,26.3498
2.56,544.328,255.111,230.421,75.424,-54.8457,-69.091,27.107
2.58,545.647,255.796,231.908,74.3316,-54.6175,11.411,27.7838
2.6,546.936,256.485,233.369,73.0475,-64.2082,-479.538,28.3907
2.62,548.195,257.173,234.804,71.7656,-64.0956,5.63148,28.9341
2.64,549.423,257.859,236.211,70.3473,-70.9132,-340.882,29.4206
2.66,550.621,258.541,237.589,68.8934,-72.6952,-89.1006,29.8558
2.68,551.788,259.216,238.937,67.4337,-72.9832,-14.3963,30.2441
2.7,552.924,259.883,240.254,65.8423,-79.5715,-329.416,30.5917
2.72,554.028,260.54,241.539,64.2568,-79.2763,14.7578,30.9016
2.74,555.101,261.186,242.792,62.6215,-81.7618,-124.274,31.1786
2.76,556.143,261.82,244.011,60.9533,-83.4112,-82.4714,31.4251
2.78,557.153,262.439,245.195,59.2235,-86.4905,-153.964,31.6445
2.8,558.131,263.044,246.345,57.5059,-85.8793,30.559,31.8397
2.82,559.076,263.633,247.459,55.6955,-90.5208,-232.076,32.013
2.84,559.991,264.206,248.539,53.9881,-85.3679,257.648,32.1667
2.86,560.872,264.763,249.581,52.1082,-93.9973,-431.47,32.3026
2.88,561.722,265.301,250.587,50.3126,-89.7813,210.801,32.4222
2.9,562.54,265.822,251.557,48.4833,-91.4616,-84.0181,32.5272
2.92,563.326,266.324,252.489,46.6071,-93.8141,-117.624,32.6195
2.94,564.079,266.807,253.384,44.7396,-93.3729,22.0604,32.6997
2.96,564.799,267.27,254.24,42.8096,-96.4992,-156.315,32.7697
2.98,565.489,267.714,255.06,40.9887,-91.0454,272.692,32.8297
3,566.144,268.137,255.841,39.0363,-97.6221,-328.837,32.8816
3.02,566.767,268.54,256.583,37.0922,-97.2008,21.0682,32.926
3.04,567.358,268.923,257.287,35.2141,-93.9055,164.765,32.9632
3.06,567.917,269.285,257.953,33.2812,-96.6495,-137.201,32.9944
3.08,568.442,269.626,258.579,31.3113,-98.4939,-92.2239,33.0205
3.1,568.934,269.947,259.166,29.3643,-97.3467,57.3617,33.0419
3.12,569.394,270.246,259.715,27.4245,-96.991,17.7854,33.0593
3.14,569.82,270.524,260.224,25.4625,-98.0991,-55.4023,33.0734
3.16,570.214,270.78,260.693,23.447,-100.775,-133.774,33.0841
3.18,570.574,271.015,261.123,21.5183,-96.4354,216.955,33.0923
3.2,570.902,271.228,261.514,19.5548,-98.1769,-87.0752,33.0987
3.22,571.195,271.419,261.864,17.5086,-102.312,-206.771,33.1032
3.24,571.457,271.59,262.177,15.6099,-94.9336,368.937,33.1063
3.26,571.684,271.738,262.448,13.5685,-102.067,-356.665,33.1084
3.28,571.878,271.865,262.679,11.5775,-99.5533,125.679,33.1099
3.3,572.039,271.97,262.872,9.60528,-98.6096,47.1868,33.1104
3.32,572.166,272.053,263.023,7.58153,-101.188,-128.898,33.1108
3.34,572.26,272.114,263.135,5.59967,-99.0932,104.72,33.1111
3.36,572.32,272.153,263.207,3.57698,-101.134,-102.06,33.1112
3.38,572.345,272.169,263.237,1.51054,-103.322,-109.372,33.1113
