"time","x","y","position","velocity","acceleration","jerk","heading"
0,327.251,244.184,0,0,40,0,59.4208
0.02,327.296,244.261,0.0894427,0.8,40,0,59.4359
0.04,327.342,244.338,0.178885,1.6,40,0,59.451
0.06,327.387,244.415,0.268328,2.4,40,0,59.466
0.08,327.433,244.492,0.357771,3.2,40,0,59.4811
0.1,327.478,244.569,0.447214,4,40,0,59.4962
0.12,327.524,244.646,0.536656,4.8,40,0,59.5113
0.14,327.569,244.723,0.626099,5.6,40,0,59.5264
0.16,327.615,244.8,0.715542,6.4,40,0,59.5415
0.18,327.66,244.877,0.804984,7.2,40,0,59.5566
0.2,327.705,244.954,0.894427,8,40,0,59.5717
0.22,327.751,245.031,0.98387,8.8,40,0,59.5868
0.24,327.848,245.198,1.17699,9.6,40,0,59.6733
0.26,327.957,245.384,1.39293,10.4,40,0,59.7755
0.28,328.066,245.571,1.60886,11.2,40,0,59.8777
0.3,328.174,245.757,1.82479,12,40,0,59.9799
0.32,328.288,245.955,2.05308,12.8,40,0,60.1029
0.34,328.428,246.199,2.33449,13.6,40,0,60.3149
0.36,328.567,246.444,2.6159,14.4,40,0,60.527
0.38,328.705,246.689,2.89731,15.2,40,0,60.739
0.4,328.859,246.964,3.21199,16,40,0,61.0312
0.42,329.02,247.256,3.5458,16.8,40,0,61.3695
0.44,329.179,247.55,3.8796,17.6,40,0,61.7078
0.46,329.35,247.87,4.24223,18.4,40,0,62.1339
0.48,329.526,248.205,4.62111,19.2,40,0,62.6095
0.5,329.699,248.542,5,20,40,0,63.085
0.52,329.887,248.917,5.41909,20.8,40,0,63.7049
0.54,330.071,249.293,5.83818,21.6,40,0,64.3248
0.56,330.26,249.692,6.27976,22.4,40,0,65.0567
0.58,330.45,250.107,6.73549,23.2,40,0,65.8589
0.6,330.639,250.537,7.20545,24,40,0,66.6947
0.62,330.83,250.988,7.69507,24.8,40,0,67.5767
0.64,331.018,251.453,8.19665,25.6,40,0,68.5321
0.66,331.205,251.939,8.71796,26.4,40,0,69.6086
0.68,331.387,252.442,9.25298,27.2,40,0,70.7229
0.7,331.564,252.964,9.80415,28,40,0,71.8819
0.72,331.735,253.507,10.3736,28.8,40,0,73.1387
0.74,331.897,254.064,10.9531,29.6,40,0,74.4495
0.76,332.052,254.648,11.5574,30.4,40,0,75.8237
0.78,332.196,255.244,12.1708,31.2,40,0,77.224
0.8,332.327,255.863,12.8032,32,40,0,78.6794
0.82,332.447,256.501,13.4526,32.8,40,0,80.1693
0.84,332.551,257.154,14.1137,33.6,40,0,81.6718
0.86,332.64,257.829,14.7948,34.4,40,0,83.1598
0.88,332.714,258.522,15.492,35.2,40,0,84.6604
0.9,332.77,259.231,16.2024,36,40,0,86.1409
0.92,332.809,259.956,16.929,36.8,40,0,87.555
0.94,332.831,260.702,17.6751,37.6,40,0,88.9431
0.96,332.835,261.462,18.4353,38.4,40,0,90.2496
0.98,332.822,262.237,19.2101,39.2,31.5945,0,91.4735
1,332.792,263.026,20,40,0.000479491,0,92.6367
1.02,332.748,263.825,20.8,40,9.58937e-05,0,93.6256
1.04,332.69,264.623,21.6,40,0,0,94.4965
1.06,332.62,265.42,22.4,40,0,0,95.2394
1.08,332.541,266.216,23.2,40,0,0,95.8441
1.1,332.455,267.011,24,40,0,0,96.3008
1.12,332.364,267.806,24.8,40,0,0,96.5989
1.14,332.269,268.6,25.6,40,0,0,96.713
1.16,332.174,269.395,26.4,40,0,0,96.6983
1.18,332.08,270.189,27.2,40,0,0,96.5381
1.2,331.99,270.984,28,40,0,0,96.1439
1.22,331.907,271.78,28.8,40,0,0,95.6468
1.24,331.832,272.576,29.6,40,0,0,94.8407
1.26,331.769,273.374,30.4,40,0,0,93.8893
1.28,331.72,274.172,31.2,40,0,0,92.7719
1.3,331.691,274.972,32,40,0,0,91.283
1.32,331.682,275.771,32.8,40,0,0,89.6268
1.34,331.698,276.571,33.6,40,0,0,87.6507
1.36,331.744,277.37,34.4,40,0,0,85.3915
1.38,331.823,278.166,35.2,40,0,0,82.8845
1.4,331.939,278.957,36,40,0,0,80.1642
1.42,332.096,279.742,36.8,40,0,0,76.9045
1.44,332.298,280.516,37.6,40,0,0,73.502
1.46,332.548,281.276,38.4,40,0,0,69.866
1.48,332.847,282.017,39.2,40,0,0,66.0087
1.5,333.197,282.737,40,40,0,0,62.0444
1.52,333.596,283.43,40.8,40,0,0,57.9897
1.54,334.044,284.092,41.6,40,0,0,53.9934
1.56,334.537,284.722,42.4,40,0,0,50.0718
1.58,335.071,285.317,43.2,40,0,0,46.2644
1.6,335.643,285.876,44,40,0,0,42.6343
1.62,336.249,286.399,44.8,40,0,0,39.289
1.64,336.883,286.887,45.6,40,0,0,36.0973
1.66,337.543,287.339,46.4,40,0,0,33.1493
1.68,338.224,287.759,47.2,40,0,0,30.4247
1.7,338.923,288.147,48,40,0,0,27.7932
1.72,339.639,288.504,48.8,40,0,0,25.4462
1.74,340.368,288.833,49.6,40,0,0,23.2679
1.76,341.109,289.135,50.4,40,0,0,21.2328
1.78,341.859,289.412,51.2,40,0,0,19.3212
1.8,342.618,289.664,52,40,0,0,17.519
1.82,343.385,289.893,52.8,40,0,0,15.8364
1.84,344.158,290.1,53.6,40,0,0,14.2256
1.86,344.936,290.286,54.4,40,0,0,12.6752
1.88,345.718,290.451,55.2,40,0,0,11.1744
1.9,346.505,290.596,56,40,0,0,9.71221
1.92,347.295,290.721,56.8,40,0,0,8.27975
1.94,348.088,290.826,57.6,40,0,0,6.85176
1.96,348.884,290.912,58.4,40,0,0,5.41283
1.98,349.681,290.977,59.2,40,0,0,3.94411
2,350.48,291.022,60,40,0,0,2.42328
2.02,351.279,291.045,60.8,40,0,0,0.782487
2.04,352.079,291.046,61.6,40,0,0,-0.310644
2.06,352.879,291.036,62.4,40,0,0,-1.15077
2.08,353.679,291.015,63.2,40,0,0,-1.94547
2.1,354.478,290.982,64,40,0,0,-2.81532
2.12,355.277,290.936,64.8,40,0,0,-3.75744
2.14,356.075,290.878,65.6,40,0,0,-4.74021
2.16,356.872,290.805,66.4,40,0,0,-5.79476
2.18,357.667,290.716,67.2,40,0,0,-6.92203
2.2,358.46,290.612,68,40,0,0,-8.09281
2.22,359.251,290.492,68.8,40,0,0,-9.32166
2.24,360.039,290.353,69.6,40,0,0,-10.6273
2.26,360.823,290.197,70.4,40,0,0,-11.9838
2.28,361.604,290.022,71.2,40,0,0,-13.3777
2.3,362.38,289.827,72,40,0,0,-14.8083
2.32,363.15,289.613,72.8,40,0,0,-16.3024
2.34,363.915,289.378,73.6,40,0,0,-17.8238
2.36,364.673,289.123,74.4,40,0,0,-19.3661
2.38,365.425,288.848,75.2,40,0,0,-20.9247
2.4,366.168,288.552,76,40,0,0,-22.4975
2.42,366.903,288.236,76.8,40,0,0,-24.0726
2.44,367.628,287.899,77.6,40,0,0,-25.6385
2.46,368.345,287.543,78.4,40,0,0,-27.1922
2.48,369.051,287.168,79.2,40,0,0,-28.7277
2.5,369.748,286.774,80,40,0,0,-30.2359
2.52,370.434,286.363,80.8,40,0,0,-31.6903
2.54,371.109,285.934,81.6,40,0,0,-33.1081
2.56,371.773,285.488,82.4,40,0,0,-34.4875
2.58,372.427,285.027,83.2,40,0,0,-35.8193
2.6,373.071,284.552,84,40,0,0,-37.0866
2.62,373.703,284.063,84.8,40,0,0,-38.2807
2.64,374.326,283.56,85.6,40,0,0,-39.4261
2.66,374.939,283.046,86.4,40,0,0,-40.5185
2.68,375.542,282.521,87.2,40,0,0,-41.5483
2.7,376.136,281.985,88,40,0,0,-42.5014
2.72,376.721,281.439,88.8,40,0,0,-43.3889
2.74,377.299,280.885,89.6,40,0,0,-44.2283
2.76,377.868,280.323,90.4,40,0,0,-45.0013
2.78,378.43,279.754,91.2,40,0,0,-45.7065
2.8,378.985,279.178,92,40,0,0,-46.3594
2.82,379.533,278.596,92.8,40,0,0,-46.9535
2.84,380.077,278.008,93.6,40,0,0,-47.4849
2.86,380.614,277.416,94.4,40,0,0,-47.958
2.88,381.148,276.82,95.2,40,0,0,-48.3804
2.9,381.677,276.22,96,40,0,0,-48.7631
2.92,382.202,275.616,96.8,40,0,0,-49.0744
2.94,382.725,275.01,97.6,40,0,0,-49.3291
2.96,383.245,274.402,98.4,40,0,0,-49.5408
2.98,383.762,273.793,99.2,40,0,0,-49.7123
3,384.279,273.182,100,40,0,0,-49.8355
3.02,384.794,272.57,100.8,40,0,0,-49.8845
3.04,385.31,271.958,101.6,40,0,0,-49.8993
3.06,385.825,271.346,102.4,40,0,0,-49.872
3.08,386.34,270.734,103.2,40,0,0,-49.7957
3.1,386.857,270.124,104,40,0,0,-49.6643
3.12,387.376,269.514,104.8,40,0,0,-49.4878
3.14,387.896,268.907,105.6,40,0,0,-49.2658
3.16,388.42,268.302,106.4,40,0,0,-48.9911
3.18,388.946,267.699,107.2,40,0,0,-48.6674
3.2,389.476,267.1,108,40,0,0,-48.3088
3.22,390.01,266.504,108.8,40,0,0,-47.8892
3.24,390.549,265.913,109.6,40,0,0,-47.4101
3.26,391.092,265.326,110.4,40,0,0,-46.8864
3.28,391.642,264.745,111.2,40,0,0,-46.323
3.3,392.197,264.169,112,40,0,0,-45.7146
3.32,392.759,263.599,112.8,40,0,0,-45.0186
3.34,393.328,263.037,113.6,40,0,0,-44.2828
3.36,393.904,262.482,114.4,40,0,0,-43.5061
3.38,394.488,261.935,115.2,40,0,0,-42.6769
3.4,395.08,261.397,116,40,0,0,-41.7738
3.42,395.681,260.869,116.8,40,0,0,-40.8148
3.44,396.291,260.351,117.6,40,0,0,-39.8133
3.46,396.91,259.844,118.4,40,0,0,-38.7544
3.48,397.538,259.349,119.2,40,0,0,-37.6356
3.5,398.176,258.867,120,40,0,0,-36.4671
3.52,398.825,258.398,120.8,40,0,0,-35.2441
3.54,399.483,257.944,121.6,40,0,0,-33.9741
3.56,400.151,257.504,122.4,40,0,0,-32.6523
3.58,400.83,257.08,123.2,40,0,0,-31.2837
3.6,401.518,256.673,124,40,0,0,-29.8826
3.62,402.217,256.283,124.8,40,0,0,-28.4407
3.64,402.925,255.911,125.6,40,0,0,-26.962
3.66,403.643,255.557,126.4,40,0,0,-25.4568
3.68,404.369,255.223,127.2,40,0,0,-23.9332
3.7,405.105,254.908,128,40,0,0,-22.3965
3.72,405.848,254.613,128.8,40,0,0,-20.8464
3.74,406.6,254.339,129.6,40,0,0,-19.2959
3.76,407.358,254.085,130.4,40,0,0,-17.7507
3.78,408.124,253.851,131.2,40,0,0,-16.2145
3.8,408.895,253.638,132,40,-3.9373e-10,0,-14.6893
3.82,409.671,253.446,132.8,40,-1.41359e-05,0,-13.1963
3.84,410.452,253.273,133.6,40,-24.0009,0,-11.7348
3.86,411.233,253.122,134.395,39.6,-40,0,-10.3113
3.88,412.007,252.991,135.18,38.8,-40,0,-8.93464
3.9,412.768,252.88,135.949,38,-40,0,-7.62136
3.92,413.512,252.789,136.699,37.2,-40,0,-6.40625
3.94,414.244,252.714,137.434,36.4,-40,0,-5.24572
3.96,414.963,252.656,138.156,35.6,-40,0,-4.13563
3.98,415.666,252.612,138.86,34.8,-40,0,-3.09005
4,416.35,252.581,139.546,34,-40,0,-2.13627
4.02,417.023,252.561,140.219,33.2,-40,0,-1.23037
4.04,417.68,252.552,140.876,32.4,-40,0,-0.374781
4.06,418.317,252.553,141.513,31.6,-40,0,0.415932
4.08,418.944,252.562,142.139,30.8,-40,0,1.1672
4.1,419.55,252.578,142.746,30,-40,0,1.83688
4.12,420.14,252.601,143.337,29.2,-40,0,2.46844
4.14,420.719,252.629,143.916,28.4,-40,0,3.07252
4.16,421.273,252.661,144.471,27.6,-40,0,3.6093
4.18,421.822,252.699,145.021,26.8,-40,0,4.13121
4.2,422.342,252.739,145.543,26,-40,0,4.57169
4.22,422.857,252.782,146.06,25.2,-40,0,5.00548
4.24,423.345,252.827,146.55,24.4,-40,0,5.39143
4.26,423.83,252.874,147.037,23.6,-40,0,5.77107
4.28,424.283,252.921,147.492,22.8,-40,0,6.07856
4.3,424.736,252.971,147.948,22,-40,0,6.38604
4.32,425.156,253.019,148.371,21.2,-40,0,6.6414
4.34,425.573,253.069,148.79,20.4,-40,0,6.89006
4.36,425.969,253.118,149.189,19.6,-40,0,7.11543
4.38,426.344,253.166,149.568,18.8,-40,0,7.31752
4.4,426.72,253.215,149.947,18,-40,0,7.51962
4.42,427.057,253.26,150.287,17.2,-40,0,7.66172
4.44,427.388,253.305,150.621,16.4,-40,0,7.79412
4.46,427.719,253.351,150.955,15.6,-40,0,7.92653
4.48,428.004,253.391,151.243,14.8,-40,0,8.02797
4.5,428.283,253.43,151.525,14,-40,0,8.12458
4.52,428.561,253.471,151.806,13.2,-40,0,8.22119
4.54,428.82,253.508,152.067,12.4,-40,0,8.30383
4.56,429.033,253.54,152.283,11.6,-40,0,8.35561
4.58,429.247,253.571,152.499,10.8,-40,0,8.40738
4.6,429.461,253.603,152.715,9.99998,-40,0,8.45916
4.62,429.674,253.635,152.931,9.19998,-40,0,8.51093
4.64,429.803,253.654,153.061,8.39998,-40,0,8.53578
4.66,429.891,253.668,153.15,7.59998,-40,0,8.54798
4.68,429.979,253.681,153.24,6.79998,-40,0,8.56019
4.7,430.068,253.694,153.329,5.99998,-40,0,8.57239
4.72,430.156,253.708,153.419,5.19998,-40,0,8.58459
4.74,430.245,253.721,153.508,4.39998,-40,0,8.5968
4.76,430.333,253.735,153.597,3.59998,-40,0,8.609
4.78,430.422,253.748,153.687,2.79998,-40,0,8.6212
4.8,430.51,253.762,153.776,1.99998,-40,0,8.63341
4.82,430.598,253.775,153.866,1.19998,-40,0,8.64561
4.84,430.687,253.789,153.955,0.399977,-40,0,8.65781
