"time","x","y","position","velocity","acceleration","jerk","heading"
0,318.133,248.778,0,0,0,0,59.4208
0.02,318.137,248.785,0.00843055,0.421527,21.0764,1053.82,59.4216
0.04,318.148,248.804,0.0308251,1.11973,34.91,691.681,59.4236
0.06,318.169,248.839,0.0708873,2.00311,44.1693,462.967,59.4271
0.08,318.196,248.886,0.125379,2.7246,36.0745,-404.742,59.4321
0.1,318.233,248.947,0.196223,3.54216,40.8778,240.166,59.4384
0.12,318.277,249.021,0.282865,4.3321,39.4971,-69.0364,59.4462
0.14,318.328,249.108,0.383981,5.05581,36.1854,-165.581,59.4553
0.16,318.388,249.21,0.502265,5.91423,42.9213,336.791,59.4659
0.18,318.454,249.323,0.633311,6.55228,31.9023,-550.947,59.4881
0.2,318.528,249.447,0.777303,7.19961,32.3664,23.2046,59.5274
0.22,318.608,249.583,0.935142,7.89196,34.6173,112.545,59.5709
0.24,318.696,249.733,1.10908,8.69704,40.2545,281.859,59.6185
0.26,318.788,249.891,1.2921,9.15081,22.6883,-878.307,59.6988
0.28,318.887,250.06,1.48805,9.79744,32.3316,482.161,59.7899
0.3,318.992,250.242,1.69783,10.4892,34.5867,112.757,59.8933
0.32,319.102,250.43,1.91564,10.8904,20.0628,-726.195,60.0366
0.34,319.216,250.63,2.14572,11.5042,30.6866,531.188,60.1891
0.36,319.334,250.837,2.38386,11.9068,20.1328,-527.69,60.3871
0.38,319.457,251.053,2.63301,12.4573,27.5259,369.657,60.6025
0.4,319.581,251.275,2.88737,12.7181,13.037,-724.445,60.868
0.42,319.71,251.508,3.15346,13.3044,29.3148,813.89,61.1557
0.44,319.839,251.744,3.42256,13.4551,7.53875,-1088.8,61.5038
0.46,319.971,251.989,3.70027,13.8856,21.5225,699.188,61.8864
0.48,320.104,252.238,3.98307,14.14,12.7206,-440.096,62.3177
0.5,320.236,252.492,4.26928,14.3103,8.51691,-210.184,62.8097
0.52,320.368,252.752,4.56096,14.5841,13.688,258.554,63.3508
0.54,320.499,253.017,4.85643,14.7737,9.4811,-210.345,63.9469
0.56,320.627,253.283,5.1515,14.7533,-1.01977,-525.043,64.6177
0.58,320.753,253.553,5.44916,14.883,6.48167,375.072,65.3517
0.6,320.876,253.826,5.7492,15.002,5.95,-26.5833,66.1525
0.62,320.996,254.101,6.04861,14.9707,-1.56483,-375.741,67.0241
0.64,321.111,254.378,6.34918,15.0283,2.88076,222.28,67.9697
0.66,321.22,254.658,6.64887,14.9846,-2.1834,-253.208,68.9916
0.68,321.325,254.937,6.94791,14.9518,-1.64163,27.0885,70.0912
0.7,321.424,255.219,7.24631,14.9201,-1.58616,2.77364,71.2687
0.72,321.516,255.502,7.54389,14.879,-2.05379,-23.3815,72.5231
0.74,321.602,255.787,7.84142,14.8765,-0.122019,96.5886,73.8521
0.76,321.682,256.074,8.13944,14.901,1.2223,67.2157,75.2519
0.78,321.754,256.365,8.4398,15.0181,5.85773,231.772,76.7176
0.8,321.82,256.662,8.74315,15.1674,7.46066,80.1463,78.2425
0.82,321.878,256.964,9.05113,15.3992,11.5915,206.54,79.819
0.84,321.931,257.275,9.36616,15.7513,17.605,300.675,81.4381
0.86,321.974,257.596,9.6908,16.2323,24.0504,322.273,83.0873
0.88,322.01,257.931,10.0273,16.8233,29.5525,275.105,84.7551
0.9,322.036,258.281,10.3783,17.551,36.3842,341.585,86.4301
0.92,322.054,258.65,10.7473,18.4516,45.0276,432.168,88.0948
0.94,322.061,259.04,11.1378,19.5258,53.7096,434.1,89.7354
0.96,322.057,259.452,11.55,20.6081,54.1164,20.3409,91.3447
0.98,322.041,259.894,11.9922,22.1097,75.079,1048.13,92.8959
1,322.01,260.363,12.4619,23.4866,68.8475,-311.573,94.3894
1.02,321.966,260.859,12.9598,24.8929,70.3121,73.2293,95.7919
1.04,321.907,261.377,13.481,26.0582,58.2682,-602.197,97.0859
1.06,321.835,261.916,14.0254,27.2211,58.1415,-6.3337,98.2725
1.08,321.748,262.479,14.5949,28.4743,62.6616,226.005,99.339
1.1,321.646,263.063,15.1881,29.6618,59.3736,-164.397,100.302
1.12,321.531,263.672,15.8077,30.9793,65.8762,325.127,101.139
1.14,321.402,264.3,16.4491,32.07,54.5354,-567.04,101.871
1.16,321.261,264.953,17.1164,33.3638,64.69,507.733,102.487
1.18,321.109,265.628,17.809,34.6298,63.3001,-69.496,102.988
1.2,320.945,266.323,18.5226,35.683,52.6605,-531.983,103.385
1.22,320.772,267.045,19.2648,37.1088,71.2884,931.396,103.654
1.24,320.59,267.787,20.0293,38.2272,55.9188,-768.48,103.818
1.26,320.401,268.555,20.82,39.5335,65.3191,470.015,103.863
1.28,320.206,269.348,21.6365,40.8256,64.6051,-35.7025,103.787
1.3,320.006,270.164,22.4771,42.0316,60.297,-215.404,103.598
1.32,319.804,271.012,23.3482,43.5528,76.0603,788.164,103.268
1.34,319.601,271.885,24.2449,44.8374,64.2296,-591.534,102.818
1.36,319.4,272.792,25.1733,46.4199,79.1244,744.739,102.222
1.38,319.202,273.73,26.1326,47.9635,77.1807,-97.184,101.484
1.4,319.012,274.705,27.1253,49.6342,83.5381,317.871,100.589
1.42,318.832,275.718,28.1545,51.4603,91.3021,388.199,99.5272
1.44,318.666,276.771,29.221,53.3271,93.3408,101.938,98.2898
1.46,318.52,277.87,30.3296,55.4268,104.983,582.088,96.858
1.48,318.398,279.017,31.4825,57.6446,110.891,295.432,95.2232
1.5,318.308,280.212,32.6811,59.9303,114.285,169.688,93.3704
1.52,318.257,281.462,33.9326,62.578,132.387,905.117,91.2785
1.54,318.254,282.773,35.2435,65.5451,148.352,798.245,88.9081
1.56,318.309,284.128,36.5991,67.7789,111.692,-1833.01,86.3287
1.58,318.433,285.531,38.0079,70.44,133.056,1068.19,83.5043
1.6,318.638,286.981,39.4722,73.2146,138.728,283.606,80.4215
1.62,318.934,288.474,40.9939,76.0849,143.513,239.265,77.069
1.64,319.331,289.987,42.5586,78.2357,107.54,-1798.66,73.5215
1.66,319.833,291.505,44.1576,79.9507,85.7536,-1089.32,69.8157
1.68,320.443,293.009,45.7798,81.1086,57.8919,-1393.09,65.998
1.7,321.158,294.479,47.4149,81.757,32.4238,-1273.4,62.1212
1.72,321.972,295.899,49.0514,81.8215,3.22069,-1460.15,58.2401
1.74,322.872,297.248,50.6732,81.09,-36.5736,-1989.71,54.4288
1.76,323.84,298.514,52.2668,79.6823,-70.3857,-1690.61,50.7445
1.78,324.865,299.691,53.8276,78.038,-82.2139,-591.41,47.2123
1.8,325.937,300.782,55.3575,76.4945,-77.1729,252.049,43.8245
1.82,327.036,301.779,56.841,74.1759,-115.934,-1938.04,40.6562
1.84,328.15,302.687,58.2782,71.8624,-115.674,12.9833,37.6978
1.86,329.276,303.513,59.6747,69.8213,-102.055,680.952,34.9298
1.88,330.403,304.263,61.0285,67.6928,-106.426,-218.526,32.3595
1.9,331.531,304.946,62.3468,65.9138,-88.949,873.832,29.9527
1.92,332.652,305.562,63.6266,63.9902,-96.1771,-361.403,27.7255
1.94,333.77,306.123,64.8775,62.543,-72.3612,1190.79,25.634
1.96,334.881,306.634,66.0996,61.1092,-71.6914,33.4925,23.6755
1.98,335.984,307.096,67.2953,59.7828,-66.3173,268.702,21.8402
2,337.08,307.516,68.4698,58.7265,-52.8179,674.974,20.102
2.02,338.171,307.897,69.6255,57.7831,-47.1695,282.419,18.4511
2.04,339.256,308.243,70.7638,56.9171,-43.2996,193.493,16.8849
2.06,340.336,308.555,71.8876,56.1906,-36.3263,348.668,15.38
2.08,341.413,308.836,73.001,55.6662,-26.2195,505.336,13.926
2.1,342.488,309.089,74.1056,55.2309,-21.766,222.676,12.5137
2.12,343.562,309.314,75.203,54.8688,-18.1049,183.057,11.134
2.14,344.638,309.512,76.297,54.7012,-8.3757,486.459,9.77103
2.16,345.717,309.685,77.3898,54.6394,-3.09213,264.179,8.41332
2.18,346.801,309.832,78.4832,54.6718,1.61765,235.489,7.04821
2.2,347.894,309.954,79.5834,55.0116,16.9933,768.782,5.65514
2.22,349,310.05,80.6932,55.4884,23.8377,342.219,4.2179
2.24,350.122,310.117,81.8176,56.2204,36.6028,638.257,2.71486
2.26,351.267,310.156,82.9633,57.2828,53.1183,825.773,1.10867
2.28,352.377,310.162,84.0731,55.4922,-89.53,-7132.41,-0.328793
2.3,353.383,310.148,85.0796,50.3234,-258.439,-8445.43,-1.28633
2.32,354.407,310.116,86.1036,51.1993,43.7945,15111.7,-2.32368
2.34,355.447,310.064,87.1449,52.0662,43.3454,-22.4577,-3.44328
2.36,356.504,309.989,88.2043,52.9713,45.2536,95.4139,-4.64704
2.38,357.576,309.891,89.2815,53.8606,44.4667,-39.3472,-5.93621
2.4,358.666,309.765,90.3782,54.8336,48.6505,209.193,-7.31119
2.42,359.769,309.609,91.4928,55.7305,44.8443,-190.31,-8.77137
2.44,360.886,309.421,92.6255,56.633,45.1249,14.0275,-10.3149
2.46,362.015,309.199,93.7756,57.5076,43.7275,-69.8677,-11.9387
2.48,363.152,308.941,94.9418,58.3071,39.9743,-187.662,-13.6382
2.5,364.296,308.645,96.1235,59.084,38.8467,-56.3779,-15.4072
2.52,365.443,308.309,97.319,59.779,34.7476,-204.956,-17.2412
2.54,366.59,307.933,98.5257,60.3354,27.8239,-346.188,-19.1293
2.56,367.731,307.515,99.7411,60.7705,21.7527,-303.558,-21.0577
2.58,368.863,307.057,100.962,61.0573,14.342,-370.536,-23.0143
2.6,369.983,306.558,102.188,61.2751,10.8904,-172.579,-24.9866
2.62,371.084,306.022,103.413,61.2675,-0.382602,-563.651,-26.9616
2.64,372.165,305.448,104.637,61.172,-4.77485,-219.612,-28.9248
2.66,373.221,304.841,105.855,60.8988,-13.6572,-444.119,-30.8616
2.68,374.248,304.205,107.063,60.4192,-23.9829,-516.282,-32.7613
2.7,375.246,303.539,108.263,59.9816,-21.8796,105.161,-34.6134
2.72,376.212,302.849,109.45,59.3498,-31.5905,-485.542,-36.4088
2.74,377.145,302.138,110.623,58.6463,-35.176,-179.274,-38.1398
2.76,378.044,301.411,111.778,57.7971,-42.4587,-364.136,-39.7915
2.78,378.91,300.671,112.918,56.9737,-41.168,64.5359,-41.3663
2.8,379.742,299.917,114.04,56.1209,-42.6389,-73.545,-42.8621
2.82,380.543,299.156,115.145,55.2486,-43.6176,-48.935,-44.277
2.84,381.312,298.387,116.233,54.3914,-42.8582,37.9706,-45.6103
2.86,382.052,297.615,117.302,53.4514,-47,-207.089,-46.8621
2.88,382.764,296.839,118.355,52.6467,-40.2378,338.108,-48.0333
2.9,383.448,296.064,119.389,51.7142,-46.6235,-319.285,-49.1207
2.92,384.107,295.289,120.406,50.8505,-43.1859,171.881,-50.1298
2.94,384.743,294.514,121.409,50.115,-36.7732,320.635,-51.0648
2.96,385.356,293.743,122.395,49.3046,-40.5209,-187.385,-51.9285
2.98,385.95,292.974,123.366,48.5588,-37.2905,161.52,-52.7232
3,386.524,292.208,124.323,47.8513,-35.3756,95.7431,-53.4517
3.02,387.081,291.448,125.266,47.1297,-36.0794,-35.1875,-54.1167
3.04,387.623,290.691,126.196,46.5394,-29.514,328.267,-54.7207
3.06,388.149,289.94,127.114,45.8688,-33.5316,-200.878,-55.2661
3.08,388.661,289.193,128.019,45.2704,-29.9211,180.522,-55.7554
3.1,389.162,288.452,128.913,44.6988,-28.5759,67.2625,-56.1906
3.12,389.65,287.717,129.796,44.1249,-28.6984,-6.12612,-56.5739
3.14,390.128,286.988,130.667,43.5724,-27.6225,53.7948,-56.9071
3.16,390.596,286.265,131.529,43.0947,-23.8876,186.744,-57.1919
3.18,391.056,285.548,132.38,42.5489,-27.289,-170.07,-57.4297
3.2,391.508,284.838,133.222,42.09,-22.946,217.153,-57.6221
3.22,391.952,284.135,134.053,41.5723,-25.8861,-147.005,-57.77
3.24,392.39,283.439,134.876,41.1212,-22.5515,166.727,-57.8746
3.26,392.822,282.75,135.689,40.6789,-22.1145,21.8512,-57.9367
3.28,393.249,282.068,136.494,40.2284,-22.5248,-20.513,-57.957
3.3,393.671,281.394,137.289,39.7579,-23.5281,-50.1679,-57.9361
3.32,394.089,280.727,138.076,39.3425,-20.767,138.057,-57.8742
3.34,394.503,280.069,138.854,38.8881,-22.7195,-97.6241,-57.7716
3.36,394.914,279.418,139.623,38.4783,-20.4916,111.393,-57.6285
3.38,395.322,278.777,140.384,38.0355,-22.1397,-82.4059,-57.4447
3.4,395.727,278.144,141.135,37.5384,-24.8539,-135.71,-57.2201
3.42,396.131,277.521,141.878,37.1606,-18.8898,298.205,-56.9543
3.44,396.533,276.907,142.611,36.6684,-24.6105,-286.033,-56.6469
3.46,396.933,276.303,143.336,36.2391,-21.469,157.077,-56.2972
3.48,397.332,275.709,144.051,35.7629,-23.8065,-116.875,-55.9046
3.5,397.73,275.126,144.757,35.3079,-22.7517,52.7405,-55.4683
3.52,398.127,274.554,145.453,34.802,-25.2928,-127.058,-54.9872
3.54,398.523,273.993,146.141,34.3576,-22.2197,153.653,-54.4603
3.56,398.919,273.445,146.816,33.7814,-28.8141,-329.716,-53.8864
3.58,399.314,272.909,147.482,33.3067,-23.7335,254.028,-53.2643
3.6,399.709,272.386,148.137,32.7422,-28.2254,-224.594,-52.5927
3.62,400.104,271.876,148.782,32.238,-25.2078,150.881,-51.8702
3.64,400.498,271.381,149.415,31.6438,-29.7101,-225.115,-51.0952
3.66,400.891,270.9,150.036,31.0754,-28.421,64.4512,-50.2665
3.68,401.285,270.435,150.646,30.4607,-30.734,-115.646,-49.3826
3.7,401.677,269.985,151.243,29.8739,-29.3389,69.7531,-48.4422
3.72,402.068,269.551,151.827,29.2063,-33.3816,-202.137,-47.4434
3.74,402.459,269.133,152.399,28.6112,-29.7557,181.299,-46.3825
3.76,402.848,268.733,152.957,27.8721,-36.9549,-359.962,-45.2613
3.78,403.235,268.349,153.502,27.2841,-29.3982,377.836,-44.0793
3.8,403.622,267.983,154.035,26.6048,-33.9681,-228.497,-42.8362
3.82,404.006,267.634,154.553,25.9437,-33.0533,45.7397,-41.5322
3.84,404.388,267.303,155.059,25.2828,-33.046,0.367358,-40.1679
3.86,404.769,266.99,155.552,24.6605,-31.1125,96.6721,-38.7446
3.88,405.148,266.694,156.033,24.044,-30.8279,14.2319,-37.2642
3.9,405.525,266.415,156.502,23.459,-29.2474,79.0232,-35.7293
3.92,405.901,266.152,156.961,22.9075,-27.5782,83.4616,-34.143
3.94,406.274,265.906,157.407,22.346,-28.0721,-24.6942,-32.5054
3.96,406.647,265.676,157.846,21.9126,-21.6731,319.947,-30.8266
3.98,407.02,265.462,158.276,21.511,-20.0769,79.8118,-29.1126
4,407.394,265.26,158.701,21.2408,-13.5103,328.33,-27.37
4.02,407.769,265.073,159.121,20.9905,-12.5146,49.7843,-25.6058
4.04,408.148,264.899,159.537,20.8423,-7.41245,255.108,-23.8279
4.06,408.53,264.737,159.952,20.7482,-4.70467,135.389,-22.0443
4.08,408.918,264.587,160.369,20.8181,3.49783,410.125,-20.2643
4.1,409.314,264.448,160.788,20.9574,6.96039,173.128,-18.4966
4.12,409.717,264.32,161.211,21.1457,9.41664,122.813,-16.7494
4.14,410.131,264.202,161.641,21.4991,17.6694,412.639,-15.0302
4.16,410.554,264.095,162.077,21.8215,16.1222,-77.3592,-13.3462
4.18,410.989,263.999,162.523,22.2712,22.4865,318.212,-11.706
4.2,411.43,263.914,162.972,22.4673,9.80403,-634.123,-10.1384
4.22,411.874,263.84,163.422,22.5061,1.93726,-393.338,-8.6526
4.24,412.321,263.778,163.874,22.5913,4.26239,116.256,-7.24973
4.26,412.772,263.726,164.327,22.6688,3.87213,-19.5129,-5.92964
4.28,413.226,263.684,164.783,22.8089,7.00889,156.838,-4.69123
4.3,413.681,263.652,165.239,22.8013,-0.381127,-369.501,-3.53255
4.32,414.138,263.628,165.697,22.8903,4.44668,241.391,-2.45095
4.34,414.595,263.612,166.154,22.8588,-1.5715,-300.909,-1.4432
4.36,415.051,263.605,166.61,22.8005,-2.91712,-67.2808,-0.505662
4.38,415.505,263.604,167.065,22.7101,-4.5213,-80.2089,0.365612
4.4,415.958,263.61,167.517,22.6325,-3.87946,32.0918,1.17479
4.42,416.406,263.622,167.966,22.4127,-10.9867,-355.364,1.92616
4.44,416.853,263.64,168.413,22.355,-2.88599,405.037,2.60993
4.46,417.294,263.662,168.854,22.0788,-13.8108,-546.239,3.24159
4.48,417.73,263.689,169.291,21.8462,-11.628,109.14,3.82691
4.5,418.159,263.72,169.722,21.5199,-16.3144,-234.321,4.36505
4.52,418.583,263.755,170.147,21.2727,-12.3642,197.508,4.84891
4.54,419,263.792,170.565,20.913,-17.9828,-280.926,5.29799
4.56,419.408,263.831,170.975,20.5075,-20.2775,-114.737,5.70659
4.58,419.81,263.873,171.379,20.1875,-15.9984,213.953,6.07239
4.6,420.199,263.916,171.771,19.5995,-29.3986,-670.009,6.41482
4.62,420.584,263.959,172.159,19.3662,-11.6654,886.662,6.70974
4.64,420.956,264.004,172.533,18.721,-32.2582,-1029.64,6.98673
4.66,421.32,264.05,172.9,18.3334,-19.3803,643.895,7.22601
4.68,421.671,264.095,173.254,17.7165,-30.8473,-573.353,7.44831
4.7,422.014,264.14,173.6,17.2852,-21.5633,464.203,7.63702
4.72,422.343,264.185,173.932,16.5972,-34.4039,-642.029,7.81539
4.74,422.663,264.23,174.255,16.1774,-20.9875,670.818,7.95854
4.76,422.97,264.273,174.565,15.4904,-34.35,-668.126,8.09523
4.78,423.265,264.316,174.863,14.9161,-28.7151,281.746,8.20647
4.8,423.547,264.357,175.148,14.2583,-32.8889,-208.691,8.30395
4.82,423.815,264.396,175.419,13.5072,-37.5547,-233.287,8.39633
4.84,424.073,264.434,175.68,13.0566,-22.5301,751.229,8.46032
4.86,424.315,264.47,175.925,12.2488,-40.3923,-893.109,8.51989
4.88,424.543,264.504,176.155,11.5321,-35.8333,227.948,8.57576
4.9,424.759,264.537,176.374,10.9255,-30.3292,275.205,8.61313
4.92,424.961,264.568,176.578,10.2036,-36.0985,-288.464,8.64271
4.94,425.147,264.596,176.766,9.41445,-39.4557,-167.859,8.67003
4.96,425.318,264.622,176.939,8.63265,-39.0899,18.2888,8.69511
4.98,425.476,264.647,177.098,7.98125,-32.5699,326.001,8.71044
5,425.619,264.668,177.244,7.25775,-36.1754,-180.275,8.71742
5.02,425.746,264.688,177.372,6.41073,-42.351,-308.784,8.72363
5.04,425.859,264.705,177.486,5.70429,-35.3217,351.467,8.72908
5.06,425.955,264.72,177.583,4.85721,-42.3542,-351.624,8.73376
5.08,426.035,264.733,177.664,4.05947,-39.8867,123.373,8.73769
5.1,426.1,264.743,177.73,3.30361,-37.7934,104.667,8.74085
5.12,426.15,264.749,177.78,2.49852,-40.2545,-123.056,8.74325
5.14,426.183,264.755,177.814,1.7087,-39.4906,38.1918,8.74488
5.16,426.198,264.757,177.829,0.74834,-48.0182,-426.379,8.74565
