"time","x","y","position","velocity","acceleration","jerk","heading"
0,361.059,282.63,0,0,0,0,-93.3665
0.02,361.058,282.618,0.0119769,0.598847,29.9424,1497.12,-93.3662
0.04,361.056,282.582,0.04786,1.79415,59.7653,1491.15,-93.3654
0.06,361.053,282.522,0.107633,2.98866,59.7253,-2.00043,-93.364
0.08,361.048,282.439,0.191372,4.18696,59.9148,9.47711,-93.3621
0.1,361.041,282.332,0.298062,5.33449,57.3768,-126.901,-93.3596
0.12,361.034,282.201,0.42958,6.57586,62.0685,234.586,-93.3565
0.14,361.025,282.046,0.585063,7.77417,59.9153,-107.66,-93.3529
0.16,361.014,281.867,0.764515,8.9726,59.9216,0.310884,-93.3488
0.18,361.002,281.665,0.965994,10.074,55.0676,-242.697,-93.3401
0.2,360.989,281.441,1.19124,11.2622,59.4144,217.34,-93.3256
0.22,360.974,281.192,1.44024,12.4499,59.381,-1.67065,-93.3096
0.24,360.959,280.921,1.71193,13.5846,56.7393,-132.087,-93.2921
0.26,360.942,280.627,2.00633,14.7201,56.7746,1.76914,-93.2639
0.28,360.924,280.311,2.32313,15.8399,55.987,-39.3829,-93.2328
0.3,360.905,279.97,2.66405,17.0461,60.3117,216.235,-93.1973
0.32,360.885,279.609,3.02589,18.092,52.2919,-400.99,-93.1523
0.34,360.864,279.224,3.41116,19.2633,58.5671,313.761,-93.1043
0.36,360.842,278.817,3.81928,20.4064,57.1541,-70.6518,-93.0463
0.38,360.819,278.387,4.24956,21.5138,55.3707,-89.1674,-92.9845
0.4,360.796,277.935,4.70209,22.6264,55.6303,12.9808,-92.9145
0.42,360.772,277.459,5.17873,23.8321,60.2829,232.628,-92.8403
0.44,360.748,276.961,5.67716,24.9214,54.4654,-290.873,-92.7606
0.46,360.723,276.439,6.19996,26.14,60.9312,323.289,-92.6779
0.48,360.698,275.894,6.74502,27.253,55.6526,-263.929,-92.5921
0.5,360.672,275.326,7.31453,28.4757,61.1345,274.096,-92.5081
0.52,360.647,274.731,7.90949,29.7482,63.6218,124.362,-92.4265
0.54,360.622,274.113,8.52847,30.9489,60.0366,-179.257,-92.3497
0.56,360.595,273.467,9.1743,32.2915,67.1303,354.685,-92.2814
0.58,360.569,272.795,9.84706,33.6378,67.3149,9.22712,-92.2314
0.6,360.542,272.094,10.5492,35.1067,73.4459,306.551,-92.2018
0.62,360.514,271.363,11.2802,36.5509,72.2108,-61.7549,-92.1994
0.64,360.485,270.6,12.044,38.1899,81.9492,486.921,-92.233
0.66,360.453,269.804,12.8408,39.8398,82.4933,27.2048,-92.3127
0.68,360.419,268.971,13.6742,41.6701,91.5153,451.099,-92.4506
0.7,360.38,268.098,14.5483,43.7024,101.616,505.033,-92.6604
0.72,360.335,267.183,15.4644,45.8081,105.283,183.333,-92.9579
0.74,360.282,266.222,16.4269,48.1264,115.916,531.668,-93.3625
0.76,360.217,265.206,17.4449,50.8996,138.66,1137.22,-93.9108
0.78,360.138,264.133,18.5208,53.7909,144.566,295.261,-94.6128
0.8,360.038,263,19.6578,56.8543,153.168,430.123,-95.4917
0.82,359.911,261.795,20.8701,60.6133,187.952,1739.19,-96.6047
0.84,359.748,260.517,22.1585,64.4182,190.247,114.751,-97.9611
0.86,359.539,259.158,23.5332,68.7368,215.927,1283.98,-99.6076
0.88,359.271,257.719,24.9968,73.179,222.113,309.336,-101.556
0.9,358.928,256.197,26.5571,78.0166,241.88,988.329,-103.845
0.92,358.512,254.654,28.1546,79.8758,92.9574,-7446.12,-106.36
0.94,358.024,253.122,29.7628,80.4084,26.6306,-3316.34,-109.035
0.96,357.464,251.619,31.3667,80.1969,-10.5749,-1860.28,-111.804
0.98,356.841,250.162,32.9513,79.2258,-48.5549,-1899,-114.589
1,356.162,248.769,34.5009,77.4822,-87.1775,-1931.13,-117.328
1.02,355.441,247.45,36.0045,75.1814,-115.041,-1393.18,-119.965
1.04,354.691,246.213,37.451,72.3257,-142.788,-1387.33,-122.444
1.06,353.925,245.06,38.8353,69.2132,-155.622,-641.694,-124.75
1.08,353.152,243.988,40.157,66.0848,-156.422,-39.9961,-126.871
1.1,352.384,243,41.4082,62.5599,-176.245,-991.16,-128.781
1.12,351.628,242.086,42.5943,59.3036,-162.816,671.459,-130.501
1.14,350.886,241.242,43.7186,56.2166,-154.348,423.395,-132.042
1.16,350.164,240.461,44.7814,53.1402,-153.822,26.2726,-133.414
1.18,349.465,239.737,45.7879,50.3259,-140.715,655.38,-134.632
1.2,348.789,239.067,46.7399,47.5991,-136.339,218.758,-135.709
1.22,348.139,238.443,47.641,45.0568,-127.115,461.241,-136.661
1.24,347.514,237.862,48.4936,42.628,-121.442,283.624,-137.501
1.26,346.915,237.321,49.3016,40.4003,-111.382,503.035,-138.244
1.28,346.344,236.817,50.0632,38.0795,-116.042,-233.018,-138.885
1.3,345.799,236.346,50.7837,36.0262,-102.667,668.731,-139.445
1.32,345.278,235.905,51.4661,34.1164,-95.4858,359.07,-139.941
1.34,344.782,235.49,52.1124,32.3165,-89.9967,274.457,-140.377
1.36,344.313,235.105,52.7188,30.3185,-99.9018,-495.253,-140.741
1.38,343.868,234.744,53.2924,28.6814,-81.8553,902.324,-141.067
1.4,343.449,234.406,53.8307,26.9181,-88.1642,-315.444,-141.341
1.42,343.052,234.09,54.3378,25.3527,-78.2676,494.829,-141.577
1.44,342.679,233.796,54.8133,23.7733,-78.9735,-35.2966,-141.778
1.46,342.33,233.522,55.257,22.1847,-79.4266,-22.656,-141.946
1.48,342.004,233.268,55.6704,20.6726,-75.6061,191.028,-142.086
1.5,341.699,233.031,56.0563,19.2969,-68.7846,341.072,-142.207
1.52,341.418,232.813,56.4118,17.7704,-76.3245,-376.994,-142.295
1.54,341.158,232.612,56.74,16.4145,-67.7947,426.491,-142.376
1.56,340.92,232.429,57.0408,15.0373,-68.8636,-53.4442,-142.435
1.58,340.703,232.263,57.3139,13.653,-69.2115,-17.394,-142.477
1.6,340.507,232.112,57.5617,12.3904,-63.1333,303.907,-142.515
1.62,340.33,231.977,57.7842,11.1262,-63.2072,-3.6915,-142.548
1.64,340.176,231.858,57.9782,9.69852,-71.3846,-408.871,-142.558
1.66,340.042,231.755,58.1477,8.47748,-61.0522,516.618,-142.567
1.68,339.925,231.667,58.2936,7.29628,-59.06,99.6126,-142.575
1.7,339.829,231.593,58.4149,6.06585,-61.5215,-123.075,-142.582
1.72,339.752,231.535,58.5116,4.83405,-61.5898,-3.41673,-142.587
1.74,339.695,231.49,58.5845,3.64346,-59.5299,102.996,-142.591
1.76,339.656,231.461,58.6327,2.41164,-61.5909,-103.05,-142.593
1.78,339.639,231.448,58.6543,1.08082,-66.5407,-247.491,-142.594
