"time","x","y","position","velocity","acceleration","jerk","heading"
0,328.765,242.495,0,0,40,0,59.4208
0.02,328.811,242.572,0.0894427,0.8,40,0,59.4363
0.04,328.856,242.649,0.178885,1.6,40,0,59.4518
0.06,328.902,242.726,0.268328,2.4,40,0,59.4673
0.08,328.947,242.803,0.357771,3.2,40,0,59.4828
0.1,328.992,242.88,0.447214,4,40,0,59.4983
0.12,329.038,242.957,0.536656,4.8,40,0,59.5138
0.14,329.083,243.034,0.626099,5.6,40,0,59.5293
0.16,329.129,243.111,0.715542,6.4,40,0,59.5448
0.18,329.174,243.188,0.804984,7.2,40,0,59.5603
0.2,329.219,243.265,0.894427,8,40,0,59.5758
0.22,329.265,243.342,0.98387,8.8,40,0,59.5913
0.24,329.363,243.509,1.17699,9.6,40,0,59.6723
0.26,329.472,243.695,1.39293,10.4,40,0,59.7676
0.28,329.58,243.882,1.60886,11.2,40,0,59.863
0.3,329.689,244.068,1.82479,12,40,0,59.9583
0.32,329.803,244.266,2.05308,12.8,40,0,60.0725
0.34,329.943,244.51,2.33449,13.6,40,0,60.2679
0.36,330.083,244.754,2.6159,14.4,40,0,60.4632
0.38,330.221,244.999,2.89731,15.2,40,0,60.6585
0.4,330.375,245.274,3.21199,16,40,0,60.9278
0.42,330.537,245.566,3.5458,16.8,40,0,61.2396
0.44,330.697,245.859,3.8796,17.6,40,0,61.5514
0.46,330.869,246.178,4.24223,18.4,40,0,61.9455
0.48,331.046,246.513,4.62111,19.2,40,0,62.386
0.5,331.221,246.849,5,20,40,0,62.8266
0.52,331.411,247.223,5.41909,20.8,40,0,63.4055
0.54,331.597,247.598,5.83818,21.6,40,0,63.9843
0.56,331.788,247.996,6.27976,22.4,40,0,64.6523
0.58,331.981,248.409,6.73549,23.2,40,0,65.3762
0.6,332.174,248.837,7.20545,24,40,0,66.1662
0.62,332.369,249.287,7.69507,24.8,40,0,67.0475
0.64,332.561,249.75,8.19665,25.6,40,0,67.9853
0.66,332.752,250.235,8.71796,26.4,40,0,69.0163
0.68,332.939,250.736,9.25298,27.2,40,0,70.112
0.7,333.122,251.256,9.80415,28,40,0,71.2838
0.72,333.299,251.798,10.3736,28.8,40,0,72.5402
0.74,333.467,252.352,10.9531,29.6,40,0,73.8433
0.76,333.628,252.935,11.5574,30.4,40,0,75.254
0.78,333.777,253.53,12.1708,31.2,40,0,76.7007
0.8,333.914,254.147,12.8032,32,40,0,78.219
0.82,334.038,254.784,13.4526,32.8,40,0,79.7892
0.84,334.146,255.437,14.1137,33.6,40,0,81.3912
0.86,334.238,256.111,14.7948,34.4,40,0,83.0346
0.88,334.313,256.805,15.492,35.2,40,0,84.6939
0.9,334.368,257.513,16.2024,36,40,0,86.3587
0.92,334.403,258.239,16.929,36.8,40,0,88.0205
0.94,334.418,258.985,17.6751,37.6,40,0,89.6554
0.96,334.412,259.745,18.4353,38.4,40,0,91.256
0.98,334.384,260.519,19.2101,39.2,31.5947,0,92.8098
1,334.334,261.307,20,40,0.000228852,0,94.301
1.02,334.264,262.104,20.8,40,4.57694e-05,0,95.6823
1.04,334.176,262.899,21.6,40,0,0,96.9626
1.06,334.07,263.692,22.4,40,0,0,98.1403
1.08,333.948,264.483,23.2,40,0,0,99.2146
1.1,333.813,265.271,24,40,0,0,100.185
1.12,333.665,266.058,24.8,40,0,0,101.016
1.14,333.507,266.842,25.6,40,0,0,101.743
1.16,333.339,267.624,26.4,40,0,0,102.367
1.18,333.164,268.404,27.2,40,0,0,102.887
1.2,332.982,269.184,28,40,0,0,103.301
1.22,332.796,269.962,28.8,40,0,0,103.556
1.24,332.607,270.739,29.6,40,0,0,103.706
1.26,332.416,271.516,30.4,40,0,0,103.75
1.28,332.226,272.293,31.2,40,0,0,103.684
1.3,332.037,273.07,32,40,0,0,103.507
1.32,331.852,273.849,32.8,40,0,0,103.176
1.34,331.672,274.628,33.6,40,0,0,102.721
1.36,331.499,275.409,34.4,40,0,0,102.139
1.38,331.334,276.192,35.2,40,0,0,101.421
1.4,331.181,276.977,36,40,0,0,100.563
1.42,331.042,277.765,36.8,40,0,0,99.4988
1.44,330.917,278.555,37.6,40,0,0,98.2574
1.46,330.812,279.348,38.4,40,0,0,96.8321
1.48,330.727,280.144,39.2,40,0,0,95.2155
1.5,330.666,280.941,40,40,0,0,93.3988
1.52,330.633,281.741,40.8,40,0,0,91.2936
1.54,330.63,282.54,41.6,40,0,0,88.958
1.56,330.66,283.34,42.4,40,0,0,86.3195
1.58,330.73,284.137,43.2,40,0,0,83.4404
1.6,330.84,284.929,44,40,0,0,80.518
1.62,330.993,285.714,44.8,40,0,0,77.0705
1.64,331.195,286.488,45.6,40,0,0,73.5854
1.66,331.444,287.248,46.4,40,0,0,69.922
1.68,331.743,287.99,47.2,40,0,0,66.0919
1.7,332.091,288.71,48,40,0,0,62.2582
1.72,332.487,289.405,48.8,40,0,0,58.4017
1.74,332.929,290.072,49.6,40,0,0,54.6017
1.76,333.414,290.707,50.4,40,0,0,50.926
1.78,333.939,291.312,51.2,40,0,0,47.3806
1.8,334.499,291.882,52,40,0,0,43.9104
1.82,335.091,292.42,52.8,40,0,0,40.7551
1.84,335.711,292.926,53.6,40,0,0,37.7862
1.86,336.355,293.4,54.4,40,0,0,34.9995
1.88,337.021,293.843,55.2,40,0,0,32.3885
1.9,337.706,294.256,56,40,0,0,29.9442
1.92,338.407,294.642,56.8,40,0,0,27.73
1.94,339.122,295,57.6,40,0,0,25.6491
1.96,339.849,295.334,58.4,40,0,0,23.6877
1.98,340.587,295.642,59.2,40,0,0,21.8335
2,341.335,295.928,60,40,0,0,20.075
2.02,342.09,296.191,60.8,40,0,0,18.4246
2.04,342.853,296.433,61.6,40,0,0,16.8456
2.06,343.621,296.655,62.4,40,0,0,15.3352
2.08,344.395,296.856,63.2,40,0,0,13.8818
2.1,345.174,297.038,64,40,0,0,12.4644
2.12,345.958,297.201,64.8,40,0,0,11.0816
2.14,346.745,297.345,65.6,40,0,0,9.71491
2.16,347.535,297.471,66.4,40,0,0,8.35437
2.18,348.327,297.578,67.2,40,0,0,6.98678
2.2,349.123,297.666,68,40,0,0,5.59599
2.22,349.92,297.734,68.8,40,0,0,4.14962
2.24,350.718,297.782,69.6,40,0,0,2.63635
2.26,351.518,297.808,70.4,40,0,0,1.08312
2.28,352.318,297.813,71.2,40,0,0,-0.297925
2.3,353.118,297.803,72,40,0,0,-1.10955
2.32,353.917,297.782,72.8,40,0,0,-1.96015
2.34,354.717,297.749,73.6,40,0,0,-2.8735
2.36,355.515,297.703,74.4,40,0,0,-3.84513
2.38,356.313,297.642,75.2,40,0,0,-4.86689
2.4,357.109,297.568,76,40,0,0,-5.92704
2.42,357.904,297.477,76.8,40,0,0,-7.10312
2.44,358.697,297.37,77.6,40,0,0,-8.31358
2.46,359.487,297.247,78.4,40,0,0,-9.57917
2.48,360.275,297.105,79.2,40,0,0,-10.9086
2.5,361.058,296.944,80,40,0,0,-12.2985
2.52,361.838,296.764,80.8,40,0,0,-13.7381
2.54,362.613,296.565,81.6,40,0,0,-15.2423
2.56,363.382,296.344,82.4,40,0,0,-16.7945
2.58,364.144,296.103,83.2,40,0,0,-18.3829
2.6,364.9,295.84,84,40,0,0,-20.0007
2.62,365.648,295.556,84.8,40,0,0,-21.6694
2.64,366.387,295.249,85.6,40,0,0,-23.355
2.66,367.116,294.921,86.4,40,0,0,-25.0519
2.68,367.836,294.572,87.2,40,0,0,-26.7554
2.7,368.545,294.201,88,40,0,0,-28.4613
2.72,369.242,293.81,88.8,40,0,0,-30.1476
2.74,369.928,293.398,89.6,40,0,0,-31.8159
2.76,370.602,292.966,90.4,40,0,0,-33.4622
2.78,371.263,292.515,91.2,40,0,0,-35.0746
2.8,371.911,292.047,92,40,0,0,-36.6342
2.82,372.546,291.561,92.8,40,0,0,-38.1415
2.84,373.169,291.058,93.6,40,0,0,-39.6085
2.86,373.779,290.54,94.4,40,0,0,-41.0127
2.88,374.376,290.008,95.2,40,0,0,-42.3491
2.9,374.961,289.462,96,40,0,0,-43.6302
2.92,375.533,288.904,96.8,40,0,0,-44.8475
2.94,376.095,288.334,97.6,40,0,0,-45.9899
2.96,376.645,287.753,98.4,40,0,0,-47.0644
2.98,377.184,287.162,99.2,40,0,0,-48.0804
3,377.713,286.562,100,40,0,0,-49.0498
3.02,378.233,285.954,100.8,40,0,0,-49.9241
3.04,378.743,285.337,101.6,40,0,0,-50.7361
3.06,379.245,284.714,102.4,40,0,0,-51.4995
3.08,379.738,284.085,103.2,40,0,0,-52.2124
3.1,380.225,283.45,104,40,0,0,-52.8561
3.12,380.704,282.809,104.8,40,0,0,-53.4301
3.14,381.178,282.164,105.6,40,0,0,-53.9684
3.16,381.645,281.515,106.4,40,0,0,-54.4481
3.18,382.108,280.862,107.2,40,0,0,-54.8682
3.2,382.565,280.206,108,40,0,0,-55.2502
3.22,383.019,279.548,108.8,40,0,0,-55.5851
3.24,383.47,278.886,109.6,40,0,0,-55.8544
3.26,383.917,278.223,110.4,40,0,0,-56.0838
3.28,384.362,277.558,111.2,40,0,0,-56.2802
3.3,384.805,276.892,112,40,0,0,-56.4321
3.32,385.246,276.225,112.8,40,0,0,-56.5209
3.34,385.687,275.557,113.6,40,0,0,-56.5852
3.36,386.127,274.889,114.4,40,0,0,-56.6041
3.38,386.567,274.221,115.2,40,0,0,-56.5759
3.4,387.008,273.554,116,40,0,0,-56.5175
3.42,387.45,272.887,116.8,40,0,0,-56.4176
3.44,387.893,272.221,117.6,40,0,0,-56.2654
3.46,388.338,271.556,118.4,40,0,0,-56.0808
3.48,388.785,270.893,119.2,40,0,0,-55.8662
3.5,389.236,270.231,120,40,0,0,-55.6059
3.52,389.689,269.572,120.8,40,0,0,-55.2971
3.54,390.146,268.916,121.6,40,0,0,-54.9649
3.56,390.607,268.262,122.4,40,0,0,-54.5859
3.58,391.073,267.612,123.2,40,0,0,-54.1601
3.6,391.544,266.965,124,40,0,0,-53.7117
3.62,392.02,266.322,124.8,40,0,0,-53.2119
3.64,392.502,265.683,125.6,40,0,0,-52.6675
3.66,392.99,265.049,126.4,40,0,0,-52.0925
3.68,393.484,264.421,127.2,40,0,0,-51.4842
3.7,393.986,263.797,128,40,0,0,-50.8234
3.72,394.495,263.18,128.8,40,0,0,-50.1202
3.74,395.012,262.569,129.6,40,0,0,-49.3885
3.76,395.536,261.965,130.4,40,0,0,-48.6102
3.78,396.069,261.369,131.2,40,0,0,-47.787
3.8,396.611,260.78,132,40,0,0,-46.9396
3.82,397.161,260.2,132.8,40,0,0,-46.0411
3.84,397.721,259.628,133.6,40,0,0,-45.1001
3.86,398.29,259.066,134.4,40,0,0,-44.1294
3.88,398.869,258.514,135.2,40,0,0,-43.1291
3.9,399.458,257.972,136,40,0,0,-42.0864
3.92,400.057,257.441,136.8,40,0,0,-41.0042
3.94,400.665,256.922,137.6,40,0,0,-39.9015
3.96,401.284,256.415,138.4,40,0,0,-38.7663
3.98,401.913,255.92,139.2,40,0,0,-37.5997
4,402.551,255.439,140,40,0,0,-36.4161
4.02,403.2,254.97,140.8,40,0,0,-35.2106
4.04,403.858,254.516,141.6,40,0,0,-33.9817
4.06,404.526,254.076,142.4,40,0,0,-32.7405
4.08,405.204,253.651,143.2,40,0,0,-31.4917
4.1,405.891,253.24,144,40,0,0,-30.2344
4.12,406.586,252.845,144.8,40,0,0,-28.973
4.14,407.29,252.465,145.6,40,0,0,-27.7132
4.16,408.003,252.101,146.4,40,0,0,-26.4575
4.18,408.723,251.753,147.2,40,0,0,-25.2097
4.2,409.45,251.42,148,40,0,0,-23.9751
4.22,410.185,251.103,148.8,40,0,0,-22.7529
4.24,410.926,250.801,149.6,40,0,0,-21.5552
4.26,411.673,250.515,150.4,40,-4.60306e-06,0,-20.3798
4.28,412.425,250.244,151.2,40,-8.00159,0,-19.2241
4.3,413.183,249.989,152,40,-40,0,-18.0854
4.32,413.937,249.751,152.79,39.2,-40,0,-17.0187
4.34,414.68,249.531,153.565,38.4,-40,0,-15.9909
4.36,415.412,249.328,154.325,37.6,-40,0,-15.0087
4.38,416.134,249.141,155.071,36.8,-40,0,-14.0748
4.4,416.841,248.97,155.798,36,-40,0,-13.2091
4.42,417.533,248.813,156.508,35.2,-40,0,-12.3795
4.44,418.215,248.668,157.205,34.4,-40,0,-11.5929
4.46,418.883,248.536,157.886,33.6,-40,0,-10.8736
4.48,419.534,248.415,158.547,32.8,-40,0,-10.1956
4.5,420.173,248.304,159.197,32,-40,0,-9.54814
4.52,420.798,248.202,159.829,31.2,-40,0,-8.94965
4.54,421.404,248.11,160.443,30.4,-40,0,-8.40093
4.56,422.002,248.025,161.047,29.6,-40,0,-7.87447
4.58,422.577,247.948,161.626,28.8,-40,0,-7.39179
4.6,423.142,247.877,162.196,28,-40,0,-6.93831
4.62,423.689,247.813,162.747,27.2,-40,0,-6.53779
4.64,424.221,247.754,163.282,26.4,-40,0,-6.15759
4.66,424.739,247.7,163.803,25.6,-40,0,-5.79464
4.68,425.238,247.651,164.305,24.8,-40,0,-5.47576
4.7,425.726,247.606,164.795,24,-40,0,-5.18358
4.72,426.194,247.565,165.264,23.2,-40,0,-4.91634
4.74,426.648,247.527,165.72,22.4,-40,0,-4.66715
4.76,427.089,247.492,166.162,21.6,-40,0,-4.43747
4.78,427.506,247.46,166.581,20.8,-40,0,-4.23881
4.8,427.924,247.43,167,20,-40,0,-4.04016
4.82,428.302,247.404,167.379,19.2,-40,0,-3.8909
4.84,428.68,247.379,167.758,18.4,-40,0,-3.74165
4.86,429.042,247.356,168.12,17.6,-40,0,-3.60443
4.88,429.376,247.336,168.454,16.8,-40,0,-3.48856
4.9,429.709,247.316,168.788,16,-40,0,-3.37269
4.92,430.023,247.298,169.103,15.2,-40,0,-3.27495
4.94,430.304,247.282,169.384,14.4,-40,0,-3.20872
4.96,430.585,247.267,169.665,13.6,-40,0,-3.1425
4.98,430.866,247.251,169.947,12.8,-40,0,-3.07628
5,431.094,247.239,170.175,12,-40,0,-3.02735
5.02,431.309,247.228,170.391,11.2,-40,0,-2.98244
5.04,431.525,247.217,170.607,10.4,-40,0,-2.93752
5.06,431.741,247.206,170.823,9.59996,-40,0,-2.89261
5.08,431.934,247.197,171.016,8.79996,-40,0,-2.85461
5.1,432.023,247.192,171.106,7.99996,-40,0,-2.84801
5.12,432.112,247.188,171.195,7.19996,-40,0,-2.84141
5.14,432.202,247.183,171.284,6.39996,-40,0,-2.83482
5.16,432.291,247.179,171.374,5.59996,-40,0,-2.82822
5.18,432.38,247.175,171.463,4.79996,-40,0,-2.82162
5.2,432.47,247.17,171.553,3.99996,-40,0,-2.81502
5.22,432.559,247.166,171.642,3.19996,-40,0,-2.80843
5.24,432.648,247.162,171.732,2.39996,-40,0,-2.80183
5.26,432.738,247.157,171.821,1.59996,-40,0,-2.79523
5.28,432.827,247.153,171.911,0.79996,-40,0,-2.78863
