"time","x","y","position","velocity","acceleration","jerk","heading"
0,343.158,229.09,0,0,0,0,37.405
0.02,343.269,229.176,0.140516,7.02581,351.29,17564.5,37.4026
0.04,343.382,229.261,0.281827,7.06553,1.98614,-17465.2,37.4002
0.06,343.493,229.347,0.422372,7.02725,-1.91396,-195.005,37.3979
0.08,343.604,229.433,0.562888,7.02581,-0.07218,92.089,37.3955
0.1,343.717,229.518,0.704198,7.06553,1.98614,102.916,37.3931
0.12,343.828,229.603,0.844108,6.99547,-3.50311,-274.462,37.3907
0.14,343.94,229.688,0.984653,7.02725,1.58915,254.613,37.3884
0.16,344.197,229.885,1.30794,16.1643,456.855,22763.3,37.3741
0.18,344.465,230.089,1.64536,16.871,35.3324,-21076.1,37.3589
0.2,344.733,230.294,1.98198,16.8312,-1.98809,-1866.02,37.3437
0.22,345.079,230.558,2.41799,21.8002,248.449,12521.9,37.3118
0.24,345.426,230.822,2.85402,21.8017,0.0721851,-12418.9,37.28
0.26,345.819,231.121,3.34786,24.692,144.517,7222.26,37.233
0.28,346.227,231.431,3.86032,25.6227,46.5344,-4899.15,37.1812
0.3,346.68,231.775,4.42851,28.4098,139.353,4640.93,37.1098
0.32,347.15,232.129,5.01682,29.4153,50.2785,-4453.73,37.0305
0.34,347.656,232.511,5.65061,31.6894,113.704,3171.27,36.9307
0.36,348.19,232.911,6.31862,33.4008,85.5686,-1406.76,36.8123
0.38,348.749,233.329,7.0159,34.8639,73.1541,-620.728,36.6761
0.4,349.333,233.762,7.74357,36.3838,75.9969,142.14,36.5177
0.42,349.952,234.219,8.51276,38.4594,103.78,1389.18,36.3264
0.44,350.596,234.691,9.31145,39.9344,73.7493,-1501.56,36.109
0.46,351.266,235.178,10.14,41.4294,74.7523,50.1487,35.862
0.48,351.964,235.68,10.9992,42.9586,76.4559,85.1831,35.5821
0.5,352.687,236.194,11.8868,44.3815,71.1496,-265.317,35.2659
0.52,353.438,236.722,12.8047,45.8949,75.6691,225.975,34.9099
0.54,354.214,237.26,13.7488,47.2038,65.4459,-511.16,34.5106
0.56,355.016,237.807,14.7195,48.5343,66.5212,53.7647,34.0645
0.58,355.842,238.36,15.7139,49.7189,59.2295,-364.582,33.5662
0.6,356.693,238.919,16.7315,50.8822,58.1664,-53.1586,33.012
0.62,357.57,239.482,17.7744,52.1445,63.1148,247.424,32.39
0.64,358.471,240.047,18.8371,53.1365,49.6026,-675.61,31.7041
0.66,359.395,240.609,19.9185,54.0701,46.6774,-146.261,30.95
0.68,360.341,241.168,21.0175,54.9468,43.838,-141.97,30.1182
0.7,361.31,241.72,22.133,55.7743,41.3745,-123.176,29.1977
0.72,362.3,242.262,23.2614,56.4237,32.4685,-445.302,28.1942
0.74,363.31,242.792,24.4022,57.0381,30.7214,-87.3521,27.0855
0.76,364.339,243.305,25.552,57.4908,22.6328,-404.433,25.8743
0.78,365.387,243.799,26.7101,57.9029,20.604,-101.44,24.5477
0.8,366.451,244.27,27.8743,58.2112,15.4189,-259.256,23.1154
0.82,367.534,244.714,29.0446,58.5166,15.2665,-7.61585,21.5525
0.84,368.631,245.13,30.218,58.666,7.47109,-389.773,19.868
0.86,369.742,245.513,31.3934,58.7744,5.42,-102.554,18.0563
0.88,370.869,245.859,32.5721,58.9348,8.02248,130.124,16.1097
0.9,372.012,246.168,33.756,59.1913,12.8207,239.913,14.0429
0.92,373.171,246.435,34.9454,59.4723,14.0493,61.4296,11.8611
0.94,374.349,246.658,36.1438,59.9187,22.3202,413.543,9.57119
0.96,375.549,246.835,37.3569,60.6548,36.8068,724.332,7.19429
0.98,376.777,246.963,38.5917,61.7419,54.3568,877.496,4.75331
1,378.039,247.041,39.8559,63.2116,73.4815,956.235,2.27505
1.02,379.341,247.064,41.1586,65.1332,96.0846,1130.16,-0.210782
1.04,380.69,247.029,42.5077,67.4521,115.943,992.915,-2.67222
1.06,382.093,246.933,43.9143,70.3345,144.122,1408.94,-5.07673
1.08,383.555,246.773,45.3853,73.5485,160.698,828.836,-7.39315
1.1,385.085,246.544,46.9317,77.3183,188.489,1389.51,-9.58812
1.12,386.683,246.243,48.5576,81.296,198.886,519.868,-11.6465
1.14,388.349,245.869,50.2656,85.4016,205.279,319.654,-13.5538
1.16,390.094,245.419,52.0677,90.1046,235.151,1493.61,-15.281
1.18,391.914,244.895,53.9616,94.6923,229.386,-288.254,-16.8247
1.2,393.809,244.296,55.9486,99.3527,233.02,181.699,-18.1843
1.22,395.763,243.631,58.0133,103.235,194.112,-1945.41,-19.3453
1.24,397.758,242.909,60.1349,106.078,142.177,-2596.75,-20.3096
1.26,399.795,242.139,62.3121,108.861,139.134,-152.156,-21.0818
1.28,401.869,241.325,64.5404,111.414,127.653,-574.042,-21.6752
1.3,403.981,240.476,66.8165,113.804,119.486,-408.346,-22.1061
1.32,406.129,239.596,69.1379,116.07,113.304,-309.094,-22.3777
1.34,408.314,238.693,71.5023,118.223,107.643,-283.033,-22.5011
1.36,410.535,237.773,73.9062,120.191,98.3988,-462.228,-22.4863
1.38,412.791,236.841,76.3473,122.057,93.2955,-255.166,-22.3428
1.4,415.083,235.905,78.8224,123.756,84.9459,-417.482,-22.0839
1.42,417.41,234.97,81.3302,125.392,81.8077,-156.907,-21.7108
1.44,419.769,234.04,83.8663,126.805,70.6621,-557.283,-21.2399
1.46,422.162,233.124,86.4286,128.112,65.3488,-265.665,-20.6767
1.48,424.587,232.224,89.0155,129.347,61.7624,-179.32,-20.029
1.5,427.043,231.346,91.6232,130.383,51.7763,-499.302,-19.3101
1.52,429.527,230.494,94.2496,131.318,46.7561,-251.012,-18.5259
1.54,432.037,229.673,96.8906,132.05,36.6014,-507.736,-17.6908
1.56,434.571,228.886,99.5439,132.67,30.9843,-280.853,-16.8133
1.58,437.126,228.136,102.207,133.139,23.4697,-375.732,-15.9037
1.6,439.698,227.425,104.875,133.408,13.4248,-502.245,-14.9737
1.62,442.284,226.756,107.547,133.588,9.02569,-219.954,-14.034
1.64,444.881,226.13,110.218,133.545,-2.14602,-558.585,-13.0956
1.66,447.484,225.546,112.885,133.38,-8.28062,-306.73,-12.1692
1.68,450.085,225.007,115.542,132.821,-27.9068,-981.31,-11.2808
1.7,452.652,224.512,118.156,130.71,-105.549,-3882.09,-10.5366
1.72,455.192,224.055,120.736,129.022,-84.4328,1055.79,-9.91141
1.74,457.714,223.627,123.295,127.921,-55.0324,1470.02,-9.3658
1.76,460.217,223.225,125.83,126.763,-57.9306,-144.915,-8.89487
1.78,462.708,222.845,128.35,125.983,-38.9556,948.752,-8.48196
1.8,465.187,222.483,130.855,125.261,-36.1417,140.694,-8.1183
1.82,467.655,222.138,133.347,124.605,-32.7781,168.182,-7.79613
1.84,470.117,221.808,135.831,124.207,-19.8949,644.159,-7.50571
1.86,472.573,221.49,138.307,123.813,-19.7071,9.39022,-7.24105
1.88,475.026,221.185,140.779,123.581,-11.5776,406.472,-6.9945
1.9,477.476,220.888,143.247,123.405,-8.8065,138.557,-6.75979
1.92,479.925,220.604,145.712,123.272,-6.67317,106.667,-6.52984
1.94,482.376,220.328,148.179,123.352,4.01486,534.401,-6.29767
1.96,484.832,220.062,150.649,123.501,7.42025,170.27,-6.05524
1.98,487.295,219.806,153.126,123.803,15.1252,385.25,-5.79472
2,489.765,219.562,155.608,124.116,15.6555,26.5126,-5.50832
2.02,492.248,219.329,158.101,124.671,27.7559,605.022,-5.18293
2.04,494.746,219.111,160.609,125.394,36.1346,418.933,-4.80969
2.06,497.264,218.908,163.135,126.308,45.706,478.571,-4.37539
2.08,499.804,218.725,165.682,127.31,50.1136,220.382,-3.86613
2.1,502.372,218.564,168.255,128.672,68.0835,898.495,-3.2678
2.12,504.973,218.431,170.859,130.218,77.3183,461.737,-2.56049
2.14,507.609,218.331,173.498,131.92,85.0615,387.159,-1.73385
2.16,510.286,218.272,176.175,133.879,97.9578,644.819,-0.771006
2.18,513.008,218.261,178.897,136.08,110.061,605.166,0.342817
2.2,515.759,218.306,181.649,137.587,75.3516,-1735.48,1.6085
2.22,518.509,218.416,184.401,137.615,1.38592,-3698.29,3.01616
2.24,521.253,218.597,187.15,137.456,-7.91586,-465.089,4.55118
2.26,523.983,218.853,189.893,137.125,-16.5732,-432.865,6.19493
2.28,526.687,219.187,192.617,136.229,-44.7739,-1410.04,7.92256
2.3,529.356,219.6,195.318,135.019,-60.5032,-786.467,9.70196
2.32,531.975,220.091,197.982,133.242,-88.8713,-1418.4,11.5002
2.34,534.536,220.653,200.605,131.107,-106.754,-894.122,13.2843
2.36,537.027,221.282,203.173,128.447,-133.016,-1313.11,15.0232
2.38,539.438,221.967,205.68,125.346,-155.052,-1101.82,16.6882
2.4,541.767,222.701,208.122,122.074,-163.581,-426.458,18.263
2.42,544.009,223.473,210.493,118.569,-175.244,-583.127,19.7358
2.44,546.165,224.276,212.794,115.016,-177.634,-119.505,21.0991
2.46,548.234,225.101,215.021,111.385,-181.563,-196.436,22.3485
2.48,550.219,225.941,217.177,107.777,-180.405,57.9036,23.4882
2.5,552.125,226.79,219.263,104.308,-173.436,348.446,24.5226
2.52,553.951,227.641,221.278,100.729,-178.958,-276.12,25.454
2.54,555.705,228.492,223.227,97.4742,-162.748,810.507,26.2965
2.56,557.391,229.34,225.115,94.3819,-154.614,406.703,27.0584
2.58,559.008,230.179,226.937,91.0982,-164.187,-478.666,27.7378
2.6,560.563,231.008,228.699,88.0962,-150.1,704.373,28.3459
2.62,562.06,231.825,230.403,85.2341,-143.105,349.751,28.892
2.64,563.497,232.626,232.049,82.2964,-146.884,-188.952,29.3784
2.66,564.883,233.413,233.643,79.6964,-130.002,844.102,29.816
2.68,566.216,234.184,235.182,76.9557,-137.034,-351.624,30.2059
2.7,567.499,234.936,236.669,74.353,-130.135,344.947,30.5549
2.72,568.737,235.671,238.109,71.9998,-117.661,623.73,30.8694
2.74,569.922,236.384,239.493,69.1754,-141.217,-1177.84,31.1463
2.76,571.065,237.078,240.83,66.8654,-115.503,1285.71,31.3938
2.78,572.167,237.754,242.122,64.5983,-113.354,107.483,31.6148
2.8,573.226,238.408,243.367,62.2543,-117.197,-192.185,31.8123
2.82,574.241,239.04,244.563,59.7836,-123.537,-316.999,31.9863
2.84,575.216,239.65,245.713,57.4909,-114.632,445.254,32.141
2.86,576.151,240.24,246.819,55.3101,-109.044,279.386,32.2786
2.88,577.048,240.808,247.88,53.0597,-112.516,-173.58,32.3998
2.9,577.906,241.353,248.896,50.8226,-111.858,32.8874,32.5055
2.92,578.726,241.877,249.87,48.6696,-107.649,210.488,32.5986
2.94,579.51,242.379,250.801,46.5625,-105.356,114.619,32.6804
2.96,580.26,242.86,251.692,44.5315,-101.551,190.255,32.7522
2.98,580.967,243.316,252.534,42.0907,-122.039,-1024.41,32.8135
3,581.637,243.748,253.331,39.8605,-111.508,526.563,32.8664
3.02,582.274,244.16,254.089,37.9305,-96.5026,750.275,32.9115
3.04,582.881,244.553,254.812,36.1347,-89.7897,335.644,32.9504
3.06,583.444,244.919,255.484,33.6005,-126.707,-1845.87,32.9819
3.08,583.972,245.262,256.113,31.4343,-108.309,919.897,33.0084
3.1,584.48,245.592,256.72,30.341,-54.6666,2682.13,33.0322
3.12,584.929,245.883,257.254,26.7053,-181.787,-6356,33.0491
3.14,585.369,246.171,257.779,26.2795,-21.2857,8025.05,33.0654
3.16,585.744,246.414,258.227,22.3844,-194.759,-8673.68,33.076
3.18,586.12,246.659,258.675,22.4131,1.43486,9809.71,33.0867
3.2,586.421,246.856,259.035,18.0056,-220.371,-11090.3,33.0928
3.22,586.708,247.044,259.379,17.1605,-42.2567,8905.69,33.098
3.24,586.996,247.231,259.721,17.1318,-1.43774,2040.95,33.1031
3.26,587.131,247.319,259.883,8.07622,-452.777,-22567,33.1044
3.28,587.249,247.396,260.024,7.05803,-50.9095,20093.4,33.1053
3.3,587.368,247.473,260.166,7.09851,2.02412,2646.68,33.1061
3.32,587.487,247.55,260.307,7.05803,-2.02412,-202.412,33.107
3.34,587.606,247.628,260.45,7.1258,3.38845,270.628,33.1078
3.36,587.724,247.705,260.591,7.05803,-3.38845,-338.845,33.1087
3.38,587.843,247.783,260.733,7.09995,2.0963,274.237,33.1096
