"time","x","y","position","velocity","acceleration","jerk","heading"
0,410.265,130.797,0,0,0,0,-40.6013
0.02,410.349,130.726,0.110391,5.51953,275.976,13798.8,-40.6027
0.04,410.432,130.653,0.220643,5.51263,-0.345069,-13816.1,-40.604
0.06,410.516,130.582,0.330272,5.48144,-1.55947,-60.7199,-40.6054
0.08,410.599,130.511,0.439872,5.47999,-0.0721803,74.3643,-40.6067
0.1,410.682,130.439,0.550153,5.51407,1.70383,88.8003,-40.6081
0.12,410.766,130.367,0.659782,5.48144,-1.63165,-166.774,-40.6095
0.14,410.85,130.296,0.770144,5.51808,1.83236,173.2,-40.6108
0.16,410.933,130.224,0.880425,5.51407,-0.20071,-101.653,-40.6122
0.18,411.016,130.153,0.990025,5.47999,-1.70383,-75.1558,-40.6135
0.2,411.203,129.993,1.23585,12.2912,340.56,17113.2,-40.6174
0.22,411.404,129.82,1.50085,13.25,47.9416,-14630.9,-40.6216
0.24,411.606,129.647,1.76664,13.2894,1.96965,-2298.6,-40.6259
0.26,411.813,129.469,2.03965,13.6506,18.0589,804.465,-40.6308
0.28,412.078,129.242,2.38844,17.4395,189.443,8569.22,-40.6427
0.3,412.341,129.016,2.73585,17.3704,-3.45315,-9644.83,-40.6547
0.32,412.615,128.781,3.09696,18.0559,34.2747,1886.39,-40.6676
0.34,412.929,128.511,3.51029,20.6665,130.532,4812.86,-40.6844
0.36,413.243,128.241,3.92428,20.6991,1.62975,-6445.11,-40.7012
0.38,413.589,127.944,4.38051,22.8115,105.617,5199.36,-40.7242
0.4,413.946,127.636,4.8522,23.5848,38.6669,-3347.5,-40.7493
0.42,414.326,127.309,5.35345,25.0624,73.8824,1760.78,-40.7787
0.44,414.722,126.967,5.87623,26.139,53.8266,-1002.79,-40.8113
0.46,415.14,126.606,6.42865,27.621,74.0992,1013.63,-40.8485
0.48,415.57,126.234,6.99809,28.4721,42.5563,-1577.14,-40.8883
0.5,416.029,125.836,7.60541,30.366,94.6952,2606.95,-40.9368
0.52,416.498,125.428,8.22696,31.0776,35.5777,-2955.88,-40.988
0.54,416.992,124.998,8.88182,32.7428,83.2625,2384.24,-41.0441
0.56,417.504,124.552,9.56064,33.9411,59.9167,-1167.29,-41.1073
0.58,418.031,124.092,10.2601,34.9753,51.7093,-410.372,-41.176
0.6,418.581,123.61,10.9917,36.5783,80.1492,1422,-41.2505
0.62,419.15,123.111,11.7483,37.8315,62.6583,-874.542,-41.331
0.64,419.735,122.595,12.5285,39.0069,58.7713,-194.355,-41.417
0.66,420.337,122.064,13.3314,40.1477,57.0427,-86.4301,-41.5087
0.68,420.96,121.511,14.164,41.6286,74.0444,850.087,-41.6052
0.7,421.602,120.941,15.0227,42.9338,65.2603,-439.205,-41.7064
0.72,422.26,120.353,15.9052,44.124,59.5091,-287.56,-41.8095
0.74,422.934,119.749,16.8104,45.2609,56.8418,-133.366,-41.9131
0.76,423.625,119.127,17.74,46.4787,60.8933,202.574,-42.0156
0.78,424.332,118.49,18.692,47.6027,56.1974,-234.795,-42.1128
0.8,425.052,117.837,19.6638,48.5886,49.2955,-345.091,-42.1977
0.82,425.787,117.17,20.6556,49.5886,49.9998,35.215,-42.2687
0.84,426.535,116.49,21.6668,50.5607,48.6044,-69.7699,-42.3213
0.86,427.294,115.798,22.6942,51.3716,40.549,-402.773,-42.3469
0.88,428.063,115.097,23.7352,52.0478,33.8093,-336.985,-42.3336
0.9,428.84,114.389,24.786,52.5405,24.6337,-458.781,-42.2857
0.92,429.615,113.686,25.8318,52.2933,-12.3627,-1849.82,-42.2032
0.94,430.37,113.002,26.8507,50.943,-67.5131,-2757.52,-42.0882
0.96,431.103,112.341,27.838,49.3652,-78.8877,-568.73,-41.9445
0.98,431.817,111.702,28.7965,47.9263,-71.9473,347.017,-41.7819
1,432.512,111.082,29.7273,46.5399,-69.3205,131.341,-41.6094
1.02,433.19,110.482,30.6325,45.2594,-64.0217,264.94,-41.4315
1.04,433.852,109.9,31.5143,44.0905,-58.4496,278.605,-41.2526
1.06,434.498,109.334,32.3727,42.9194,-58.552,-5.12216,-41.0775
1.08,435.13,108.785,33.2102,41.8729,-52.3249,311.357,-40.9089
1.1,435.748,108.252,34.0263,40.8062,-53.3349,-50.4999,-40.7473
1.12,436.348,107.736,34.8183,39.5984,-60.3917,-352.84,-40.5995
1.14,436.934,107.235,35.5892,38.546,-52.6195,388.609,-40.4616
1.16,437.507,106.748,36.3406,37.571,-48.7503,193.461,-40.3321
1.18,438.065,106.275,37.0726,36.5999,-48.552,9.91368,-40.2121
1.2,438.61,105.816,37.7849,35.6145,-49.2702,-35.9084,-40.1057
1.22,439.133,105.375,38.4694,34.2258,-69.438,-1008.39,-40.0091
1.24,439.645,104.946,39.1363,33.3453,-44.0255,1270.63,-39.9196
1.26,440.144,104.529,39.7871,32.5413,-40.1987,191.336,-39.8365
1.28,440.62,104.133,40.4061,30.9485,-79.6402,-1972.07,-39.7679
1.3,441.082,103.748,41.008,30.0932,-42.7669,1843.66,-39.7028
1.32,441.531,103.377,41.5904,29.1214,-48.5854,-290.924,-39.642
1.34,441.957,103.024,42.1435,27.6562,-73.2643,-1233.95,-39.593
1.36,442.377,102.677,42.6883,27.2411,-20.7506,2625.69,-39.5474
1.38,442.765,102.357,43.1915,25.1594,-104.088,-4166.85,-39.5088
1.4,443.151,102.039,43.6914,24.9936,-8.28849,4789.96,-39.4707
1.42,443.504,101.749,44.1479,22.8255,-108.408,-5006,-39.4427
1.44,443.855,101.459,44.6036,22.7819,-2.17638,5311.6,-39.4148
1.46,444.172,101.2,45.0128,20.4647,-115.863,-5684.31,-39.394
1.48,444.483,100.944,45.416,20.1558,-15.4434,5020.96,-39.3742
1.5,444.774,100.705,45.7916,18.7796,-68.8114,-2668.4,-39.3573
1.52,445.038,100.489,46.1328,17.0628,-85.84,-851.434,-39.3443
1.54,445.301,100.273,46.4733,17.0241,-1.93327,4195.34,-39.3313
1.56,445.533,100.084,46.7729,14.9806,-102.177,-5012.19,-39.3224
1.58,445.736,99.9172,47.036,13.157,-91.1771,550,-39.3169
1.6,445.939,99.7506,47.2985,13.1215,-1.77537,4470.09,-39.3114
1.62,446.143,99.5841,47.5616,13.157,1.77537,177.537,-39.3059
1.64,446.256,99.491,47.7084,7.3373,-290.987,-14638.1,-39.3035
1.66,446.341,99.422,47.8176,5.46184,-93.773,9860.68,-39.302
1.68,446.426,99.3528,47.9269,5.46645,0.230221,4700.16,-39.3006
1.7,446.51,99.2837,48.0355,5.42636,-2.0041,-111.716,-39.2991
1.72,446.594,99.2146,48.1448,5.46645,2.0041,200.41,-39.2977
1.74,446.679,99.1455,48.254,5.46184,-0.230222,-111.716,-39.2962
1.76,446.764,99.0764,48.3633,5.46645,0.230222,23.0222,-39.2948
1.78,446.847,99.0073,48.4719,5.42636,-2.0041,-111.716,-39.2933
1.8,446.932,98.9381,48.5812,5.46645,2.0041,200.41,-39.2919
