"time","x","y","position","velocity","acceleration","jerk","heading"
0,50,37.65,0,0,0,0,0
0.02,50.0123,37.65,0.0123102,0.615512,30.7756,1538.78,4.74896e-05
0.04,50.0481,37.65,0.04814,1.79149,58.7988,1401.16,0.000185594
0.06,50.1081,37.65,0.10809,2.99749,60.3003,75.0719,0.000416983
0.08,50.1922,37.65,0.19216,4.20349,60.3,-0.0142962,0.000741126
0.1,50.3002,37.65,0.30025,5.40449,60.0499,-12.5039,0.00115788
0.12,50.4324,37.65,0.432359,6.60549,60.05,0.00390681,0.00166739
0.14,50.5885,37.65,0.588489,7.80649,60.0499,-0.00474206,0.00226948
0.16,50.7686,37.65,0.768639,9.00749,60.0499,0.00134717,0.0029642
0.18,50.973,37.65,0.972955,10.2158,60.4151,18.2588,0.00442922
0.2,51.2015,37.65,1.20152,11.4283,60.6261,10.5524,0.00705619
0.22,51.4541,37.6501,1.45415,12.6313,60.1491,-23.852,0.00995976
0.24,51.7308,37.6501,1.73083,13.8343,60.1489,-0.00846025,0.0131398
0.26,52.032,37.6502,2.032,15.0586,61.215,53.3013,0.0185744
0.28,52.3573,37.6503,2.35734,16.2667,60.4066,-40.4164,0.0247636
0.3,52.7069,37.6505,2.70685,17.4757,60.4474,2.03964,0.0317829
0.32,53.081,37.6507,3.08098,18.7067,61.5509,55.1746,0.0416803
0.34,53.4793,37.6511,3.47926,19.9136,60.3444,-60.3237,0.0522162
0.36,53.9022,37.6515,3.90223,21.1488,61.7628,70.9169,0.0660234
0.38,54.3495,37.652,4.34949,22.3629,60.7035,-52.9662,0.0811356
0.4,54.8215,37.6528,4.82153,23.6021,61.9618,62.917,0.0998865
0.42,55.3179,37.6537,5.31792,24.8196,60.8726,-54.4615,0.120256
0.44,55.8393,37.6549,5.83933,26.0703,62.5355,83.1452,0.145328
0.46,56.3853,37.6565,6.38526,27.2965,61.3096,-61.2955,0.172827
0.48,56.9561,37.6584,6.95606,28.5402,62.1841,43.7291,0.204374
0.5,57.5518,37.6606,7.55183,29.7884,62.4143,11.5066,0.240397
0.52,58.1724,37.6634,8.17242,31.0294,62.0497,-18.2306,0.280213
0.54,58.818,37.6668,8.81806,32.2819,62.6254,28.7859,0.324891
0.56,59.4889,37.671,9.48895,33.5447,63.1386,25.6599,0.375374
0.58,60.1848,37.6758,10.1849,34.7951,62.5204,-30.9104,0.430979
0.6,60.906,37.6817,10.9061,36.061,63.2948,38.7206,0.492206
0.62,61.6525,37.6885,11.6526,37.3273,63.3139,0.958355,0.559547
0.64,62.4244,37.6965,12.4246,38.5982,63.5444,11.524,0.633885
0.66,63.222,37.7059,13.2223,39.8834,64.2587,35.7117,0.715597
0.68,64.0451,37.7168,14.0454,41.159,63.78,-23.9321,0.804709
0.7,64.894,37.7294,14.8943,42.445,64.3005,26.0224,0.901708
0.72,65.7686,37.744,15.7691,43.7366,64.5794,13.9465,1.00708
0.74,66.6691,37.7607,16.6697,45.0335,64.8466,13.3588,1.1213
0.76,67.5955,37.7798,17.5964,46.3313,64.8891,2.12665,1.24486
0.78,68.5479,37.8016,18.549,47.6345,65.1636,13.7223,1.37824
0.8,69.5266,37.8264,19.528,48.9488,65.713,27.4704,1.52193
0.82,70.5315,37.8544,20.5333,50.2638,65.7495,1.8249,1.67641
0.84,71.5629,37.8861,21.5652,51.5967,66.6432,44.6889,1.84279
0.86,72.6208,37.9217,22.6237,52.9236,66.3465,-14.8381,2.02138
0.88,73.7053,37.9618,23.7089,54.2596,66.8013,22.739,2.21242
0.9,74.8163,38.0067,24.8208,55.5972,66.8797,3.92297,2.41643
0.92,75.9541,38.0568,25.9598,56.9469,67.483,30.1624,2.63391
0.94,77.119,38.1128,27.126,58.3117,68.2416,37.933,2.86704
0.96,78.3108,38.1749,28.3194,59.6693,67.8783,-18.1665,3.11495
0.98,79.5295,38.2441,29.5401,61.0343,68.2529,18.7307,3.37809
1,80.7758,38.3207,30.7887,62.431,69.8358,79.1467,3.65915
1.02,82.0366,38.4046,32.0523,63.1792,37.4094,-1621.32,3.95391
1.04,83.2994,38.4952,33.3184,63.3037,6.22423,-1559.26,4.26055
1.06,84.5643,38.5929,34.5871,63.4346,6.5457,16.0735,4.57941
1.08,85.8311,38.698,35.8582,63.5566,6.098,-22.3847,4.90938
1.1,87.1001,38.8109,37.1322,63.7018,7.26234,58.2169,5.25278
1.12,88.3708,38.9316,38.4086,63.8203,5.92502,-66.8662,5.60735
1.14,89.6436,39.0607,39.6879,63.9645,7.20713,64.1058,5.97508
1.16,90.918,39.1983,40.9697,64.0901,6.28159,-46.2771,6.3549
1.18,92.1942,39.3448,42.2544,64.2324,7.11396,41.6185,6.74745
1.2,93.4722,39.5005,43.5418,64.3722,6.99059,-6.1686,7.15311
1.22,94.7517,39.6659,44.8319,64.5055,6.66755,-16.1521,7.57118
1.24,96.0329,39.841,46.125,64.6545,7.44763,39.004,8.00327
1.26,97.3154,40.0264,47.4208,64.7912,6.83311,-30.7256,8.44761
1.28,98.5995,40.2223,48.7198,64.95,7.9407,55.3791,8.90677
1.3,99.8845,40.4291,50.0214,65.0775,6.37621,-78.2241,9.3782
1.32,101.171,40.6472,51.3263,65.2464,8.44337,103.358,9.86506
1.34,102.459,40.8768,52.6344,65.4044,7.90348,-26.9945,10.3645
1.36,103.747,41.1184,53.945,65.529,6.23078,-83.6347,10.8796
1.38,105.036,41.3723,55.2584,65.6729,7.19322,48.1219,11.4077
1.4,106.327,41.6389,56.5766,65.9062,11.6645,223.565,11.9519
1.42,107.616,41.9186,57.896,65.9709,3.23496,-421.478,12.5094
1.44,108.908,42.2118,59.2205,66.2256,12.7339,474.947,13.0834
1.46,110.198,42.5187,60.5467,66.312,4.3205,-420.67,13.6711
1.48,111.488,42.8399,61.8765,66.4893,8.86493,227.221,14.2755
1.5,112.779,43.1755,63.2105,66.6994,10.5038,81.9445,14.8942
1.52,114.07,43.5263,64.5474,66.8471,7.38605,-155.889,15.5294
1.54,115.358,43.8924,65.8873,66.9923,7.25912,-6.3466,16.1798
1.56,116.647,44.2743,67.2314,67.206,10.6856,171.324,16.8462
1.58,117.934,44.6723,68.5781,67.3366,6.52937,-207.812,17.5289
1.6,119.219,45.0868,69.9285,67.518,9.07064,127.063,18.2267
1.62,120.503,45.5184,71.2832,67.7366,10.9328,93.1087,18.9421
1.64,121.784,45.9671,72.6402,67.8467,5.50077,-271.602,19.6725
1.66,123.062,46.4337,74.001,68.0392,9.6296,206.441,20.4198
1.68,124.338,46.9182,75.3657,68.2356,9.81817,9.42817,21.1831
1.7,125.61,47.4211,76.7336,68.3957,8.00674,-90.5711,21.9619
1.72,126.878,47.9429,78.1054,68.5901,9.71679,85.5023,22.758
1.74,128.142,48.4837,79.48,68.7299,6.99167,-136.256,23.5692
1.76,129.402,49.0438,80.8588,68.9412,10.5666,178.745,24.3964
1.78,130.656,49.6237,82.2404,69.0777,6.8237,-187.144,25.2396
1.8,131.904,50.2236,83.6247,69.2188,7.05358,11.4943,26.0974
1.82,133.146,50.8437,85.0133,69.4301,10.5633,175.485,26.9709
1.84,134.381,51.4844,86.4046,69.5627,6.63058,-196.635,27.8592
1.86,135.609,52.1457,87.7995,69.7467,9.20088,128.515,28.7614
1.88,136.829,52.8278,89.1968,69.8618,5.75749,-172.17,29.6779
1.9,138.04,53.5311,90.5975,70.0358,8.7006,147.155,30.608
1.92,139.241,54.2554,92,70.1239,4.40489,-214.786,31.5505
1.94,140.434,55.001,93.4064,70.3211,9.85593,272.552,32.5056
1.96,141.614,55.7677,94.8143,70.3963,3.76263,-304.665,33.4725
1.98,142.785,56.5558,96.2256,70.5633,8.3502,229.379,34.4501
2,143.943,57.3651,97.6379,70.6188,2.77364,-278.828,35.4377
2.02,145.089,58.1955,99.0532,70.7645,7.28677,225.656,36.4352
2.04,146.221,59.0468,100.47,70.8317,3.36091,-196.293,37.4409
2.06,147.339,59.919,101.888,70.9062,3.72307,18.108,38.454
2.08,148.443,60.8119,103.308,70.9909,4.23661,25.6774,39.474
2.1,149.533,61.725,104.729,71.075,4.2015,-1.75584,40.4997
2.12,150.605,62.6583,106.151,71.0857,0.535347,-183.308,41.5299
2.14,151.662,63.6112,107.574,71.1377,2.59982,103.223,42.5637
2.16,152.702,64.5834,108.998,71.1888,2.55731,-2.1255,43.6002
2.18,153.723,65.5745,110.421,71.1693,-0.973703,-176.55,44.6381
2.2,154.727,66.584,111.845,71.1812,0.593219,78.3461,45.6764
2.22,155.713,67.6114,113.268,71.1922,0.548435,-2.23919,46.7139
2.24,156.68,68.6563,114.692,71.1711,-1.05247,-80.0451,47.7497
2.26,157.627,69.7179,116.115,71.1348,-1.81664,-38.2088,48.7826
2.28,158.554,70.7958,117.536,71.0755,-2.96663,-57.4991,49.8117
2.3,159.46,71.8893,118.957,71.0295,-2.30065,33.2989,50.8355
2.32,160.347,72.9977,120.376,70.9849,-2.22598,3.73316,51.8535
2.34,161.214,74.1205,121.794,70.9015,-4.17176,-97.289,52.8647
2.36,162.059,75.257,123.211,70.8093,-4.60757,-21.7901,53.868
2.38,162.882,76.4064,124.625,70.7108,-4.92575,-15.9091,54.8622
2.4,163.685,77.5684,126.037,70.6132,-4.88013,2.28075,55.8472
2.42,164.467,78.7419,127.447,70.4968,-5.81956,-46.9713,56.8219
2.44,165.227,79.9265,128.854,70.3733,-6.1758,-17.8124,57.7848
2.46,165.967,81.1214,130.26,70.2711,-5.1113,53.225,58.7362
2.48,166.684,82.3261,131.662,70.1147,-7.81984,-135.427,59.6756
2.5,167.381,83.5398,133.061,69.9622,-7.62641,9.67151,60.601
2.52,168.057,84.762,134.458,69.8367,-6.27372,67.6347,61.5132
2.54,168.712,85.9921,135.852,69.6845,-7.61002,-66.8151,62.4118
2.56,169.347,87.2294,137.242,69.53,-7.7235,-5.67376,63.2951
2.58,169.961,88.4734,138.63,69.3612,-8.4387,-35.7601,64.1638
2.6,170.555,89.7236,140.014,69.2084,-7.64285,39.7926,65.0181
2.62,171.128,90.9792,141.394,69.0085,-9.99699,-117.707,65.8556
2.64,171.682,92.24,142.771,68.8642,-7.21463,139.118,66.6781
2.66,172.218,93.5055,144.146,68.7121,-7.60155,-19.3461,67.4851
2.68,172.733,94.775,145.516,68.5001,-10.6007,-149.957,68.2752
2.7,173.231,96.0482,146.883,68.356,-7.20674,169.697,69.0501
2.72,173.71,97.3252,148.247,68.2007,-7.7639,-27.8582,69.8082
2.74,174.17,98.6037,149.605,67.9388,-13.0933,-266.472,70.5502
2.76,174.614,99.8857,150.962,67.8382,-5.03325,403.005,71.2767
2.78,175.041,101.17,152.315,67.6476,-9.53055,-224.865,71.9859
2.8,175.45,102.456,153.665,67.5062,-7.06728,123.164,72.68
2.82,175.843,103.743,155.01,67.259,-12.3602,-264.648,73.3572
2.84,176.22,105.032,156.353,67.1454,-5.68094,333.965,74.0189
2.86,176.581,106.322,157.693,66.9873,-7.9025,-111.078,74.6647
2.88,176.927,107.612,159.029,66.7887,-9.93218,-101.484,75.2946
2.9,177.259,108.902,160.361,66.6196,-8.45488,73.8649,75.9095
2.92,177.576,110.193,161.69,66.4309,-9.43357,-48.9344,76.5081
2.94,177.879,111.484,163.017,66.3324,-4.92717,225.32,77.0925
2.96,178.168,112.775,164.339,66.1191,-10.6619,-286.736,77.6605
2.98,178.444,114.065,165.658,65.9538,-8.26966,119.611,78.215
3,178.706,115.354,166.974,65.8035,-7.51379,37.7936,78.7533
3.02,178.956,116.643,168.287,65.6629,-7.02994,24.1926,79.2785
3.04,179.194,117.931,169.597,65.4873,-8.77731,-87.3687,79.7878
3.06,179.42,119.219,170.904,65.3515,-6.79258,99.2367,80.2844
3.08,179.635,120.505,172.208,65.2071,-7.2203,-21.3862,80.7655
3.1,179.838,121.79,173.509,65.0335,-8.67951,-72.9604,81.2341
3.12,180.031,123.074,174.807,64.9129,-6.02974,132.489,81.688
3.14,180.213,124.356,176.102,64.7471,-8.29166,-113.096,82.1293
3.16,180.385,125.636,177.394,64.591,-7.80141,24.5124,82.5566
3.18,180.547,126.915,178.683,64.4454,-7.28124,26.0086,82.9712
3.2,180.7,128.193,179.97,64.3555,-4.49287,139.419,83.3728
3.22,180.844,129.468,181.253,64.1635,-9.60209,-255.461,83.7614
3.24,180.979,130.743,182.535,64.0944,-3.4529,307.46,84.1379
3.26,181.106,132.015,183.813,63.9101,-9.21637,-288.174,84.5011
3.28,181.224,133.284,185.088,63.75,-8.00662,60.4877,84.853
3.3,181.335,134.553,186.362,63.6727,-3.86278,207.192,85.1914
3.32,181.437,135.819,187.632,63.5227,-7.50068,-181.895,85.5186
3.34,181.533,137.084,188.901,63.4165,-5.31059,109.504,85.8335
3.36,181.622,138.346,190.166,63.2627,-7.68835,-118.888,86.1365
3.38,181.703,139.605,191.427,63.0665,-9.81221,-106.193,86.4281
3.4,181.778,140.842,192.666,61.9674,-54.9529,-2257.03,86.7028
3.42,181.845,142.052,193.879,60.631,-66.8211,-593.411,86.9619
3.44,181.905,143.236,195.064,59.2465,-69.2281,-120.351,87.2052
3.46,181.959,144.393,196.222,57.9127,-66.6891,126.951,87.4329
3.48,182.008,145.522,197.352,56.5041,-70.4285,-186.97,87.6466
3.5,182.051,146.625,198.456,55.2025,-65.0821,267.319,87.8471
3.52,182.09,147.701,199.533,53.8484,-67.7029,-131.036,88.0341
3.54,182.124,148.751,200.583,52.5043,-67.204,24.9407,88.2083
3.56,182.154,149.774,201.607,51.1737,-66.5319,33.6089,88.3709
3.58,182.182,150.771,202.605,49.8995,-63.7089,141.147,88.5222
3.6,182.206,151.742,203.576,48.5304,-68.4528,-237.192,88.6629
3.62,182.226,152.686,204.52,47.2163,-65.7079,137.241,88.7933
3.64,182.245,153.605,205.439,45.9599,-62.8193,144.43,88.914
3.66,182.26,154.497,206.331,44.6082,-67.5871,-238.388,89.0255
3.68,182.275,155.364,207.198,43.3626,-62.2761,265.549,89.1282
3.7,182.287,156.204,208.039,42.0229,-66.9892,-235.651,89.2227
3.72,182.297,157.02,208.855,40.7865,-61.8197,258.47,89.3093
3.74,182.306,157.809,209.644,39.4573,-66.4594,-231.985,89.3886
3.76,182.313,158.574,210.408,38.2341,-61.1598,264.981,89.4612
3.78,182.321,159.312,211.147,36.9152,-65.9459,-239.307,89.5274
3.8,182.326,160.026,211.861,35.6878,-61.366,228.998,89.5865
3.82,182.331,160.714,212.549,34.4286,-62.9622,-79.8108,89.6401
3.84,182.334,161.377,213.212,33.123,-65.2772,-115.748,89.6886
3.86,182.338,162.015,213.85,31.9248,-59.9104,268.339,89.7326
3.88,182.34,162.628,214.462,30.6119,-65.649,-286.929,89.7708
3.9,182.342,163.216,215.051,29.4198,-59.6013,302.385,89.8051
3.92,182.344,163.78,215.614,28.1864,-61.6701,-103.444,89.8363
3.94,182.345,164.317,216.152,26.8792,-65.3626,-184.626,89.8622
3.96,182.347,164.831,216.666,25.7056,-58.6781,334.229,89.8859
3.98,182.347,165.32,217.154,24.4155,-64.5036,-291.279,89.9059
4,182.348,165.784,217.619,23.2387,-58.8444,282.96,89.9234
4.02,182.349,166.225,218.059,22.0096,-61.4548,-130.518,89.9382
4.04,182.349,166.639,218.474,20.7369,-63.6345,-108.984,89.9509
4.06,182.349,167.031,218.865,19.5621,-58.7394,244.754,89.9613
4.08,182.35,167.397,219.231,18.3003,-63.0893,-217.497,89.9706
4.1,182.35,167.739,219.574,17.1201,-59.0123,203.854,89.9771
4.12,182.35,168.057,219.892,15.9147,-60.2694,-62.8588,89.9831
4.14,182.35,168.35,220.185,14.6507,-63.2005,-146.555,89.9878
4.16,182.35,168.62,220.455,13.4834,-58.3622,241.917,89.9909
4.18,182.35,168.865,220.699,12.2302,-62.6617,-214.973,89.9937
4.2,182.35,169.086,220.921,11.0769,-57.6617,250,89.9962
4.22,182.35,169.283,221.118,9.86078,-60.8083,-157.332,89.9972
4.24,182.35,169.456,221.29,8.60754,-62.6617,-92.6678,89.9979
4.26,182.35,169.605,221.439,7.45647,-57.5539,255.389,89.9985
4.28,182.35,169.729,221.564,6.20539,-62.5539,-250,89.999
4.3,182.35,169.83,221.665,5.05323,-57.6078,247.306,89.9993
4.32,182.35,169.906,221.741,3.80323,-62.5,-244.611,89.9996
4.34,182.35,169.959,221.794,2.65216,-57.5539,247.306,89.9998
4.36,182.35,169.986,221.821,1.35108,-65.0539,-375,89.9999
