"time","x","y","position","velocity","acceleration","jerk","heading"
0,433.671,248.089,0,0,120,0,13.0021
0.02,433.695,248.094,0.0242468,2.4,120,0,13.0021
0.04,433.765,248.111,0.0960629,4.8,120,0,13.0021
0.06,433.881,248.138,0.216028,7.2,120,0,13.002
0.08,434.045,248.175,0.384016,9.6,120,0,13.002
0.1,434.256,248.224,0.6,12,120,0,13.0019
0.12,434.513,248.283,0.864007,14.4,120,0,13.0017
0.14,434.817,248.354,1.17601,16.8,120,0,13.0013
0.16,435.168,248.435,1.536,19.2,120,0,13.0009
0.18,435.565,248.526,1.944,21.6,120,0,13.0001
0.2,436.009,248.629,2.4,24,120,0,12.9992
0.22,436.501,248.742,2.904,26.4,120,0,12.9978
0.24,437.038,248.866,3.456,28.8,120,0,12.9961
0.26,437.623,249.001,4.056,31.2,120,0,12.9938
0.28,438.254,249.147,4.704,33.6,120,0,12.991
0.3,438.933,249.303,5.4,36,120,0,12.9876
0.32,439.658,249.471,6.144,38.4,120,0,12.9833
0.34,440.429,249.649,6.936,40.8,120,0,12.9783
0.36,441.248,249.837,7.776,43.2,120,0,12.9722
0.38,442.113,250.036,8.664,45.6,120,0,12.9651
0.4,443.025,250.246,9.6,48,120,0,12.9568
0.42,443.984,250.467,10.584,50.4,120,0,12.9471
0.44,444.99,250.698,11.616,52.8,120,0,12.936
0.46,446.043,250.94,12.696,55.2,120,0,12.9233
0.48,447.142,251.192,13.824,57.6,120,0,12.9087
0.5,448.289,251.454,15,60,120,0,12.8923
0.52,449.482,251.727,16.224,62.4,120,0,12.8737
0.54,450.722,252.011,17.496,64.8,120,0,12.8527
0.56,452.009,252.304,18.816,67.2,120,0,12.8292
0.58,453.343,252.607,20.184,69.6,120,0,12.8029
0.6,454.724,252.921,21.6,72,120,0,12.7735
0.62,456.151,253.244,23.064,74.4,120,0,12.7409
0.64,457.626,253.577,24.576,76.8,120,0,12.7047
0.66,459.148,253.92,26.136,79.2,120,0,12.6645
0.68,460.717,254.272,27.744,81.6,120,0,12.6201
0.7,462.333,254.633,29.4,84,120,0,12.571
0.72,463.997,255.003,31.104,86.4,120,0,12.5169
0.74,465.707,255.382,32.856,88.8,120,0,12.4572
0.76,467.465,255.769,34.656,91.2,120,0,12.3915
0.78,469.27,256.164,36.504,93.6,120,0,12.3194
0.8,471.123,256.568,38.4,96,120,0,12.2402
0.82,473.023,256.978,40.344,98.4,120,0,12.1534
0.84,474.971,257.396,42.336,100.8,120,0,12.0583
0.86,476.966,257.82,44.376,103.2,120,0,11.9544
0.88,479.009,258.251,46.464,105.6,120,0,11.8412
0.9,481.1,258.687,48.6,108,120,0,11.7177
0.92,483.239,259.128,50.784,110.4,120,0,11.5839
0.94,485.426,259.574,53.016,112.8,120,0,11.4391
0.96,487.662,260.023,55.296,115.2,120,0,11.283
0.98,489.945,260.475,57.624,117.6,120,0,11.1157
1,492.278,260.929,60,120,2.42996e-08,0,10.9374
1.02,494.635,261.381,62.4,120,0,0,10.7506
1.04,496.993,261.825,64.8,120,0,0,10.5587
1.06,499.353,262.26,67.2,120,0,0,10.3633
1.08,501.715,262.688,69.6,120,0,0,10.1666
1.1,504.078,263.108,72,120,0,0,9.97102
1.12,506.442,263.519,74.4,120,0,0,9.77899
1.14,508.808,263.923,76.8,120,0,0,9.5931
1.16,511.175,264.319,79.2,120,0,0,9.41599
1.18,513.544,264.709,81.6,120,0,0,9.24984
1.2,515.913,265.091,84,120,0,0,9.0966
1.22,518.283,265.468,86.4,120,0,0,8.95802
1.24,520.654,265.839,88.8,120,0,0,8.83487
1.26,523.026,266.205,91.2,120,0,0,8.72781
1.28,525.399,266.567,93.6,120,0,0,8.63684
1.3,527.772,266.926,96,120,0,0,8.56152
1.32,530.145,267.282,98.4,120,0,0,8.5011
1.34,532.515,267.635,100.796,118.99,-120,0,8.45465
1.36,534.845,267.981,103.152,116.59,-120,0,8.4212
1.38,537.128,268.318,105.459,114.19,-120,0,8.39903
1.4,539.364,268.648,107.719,111.79,-120,0,8.3863
1.42,541.552,268.971,109.931,109.39,-120,0,8.38133
1.44,543.692,269.286,112.095,106.99,-120,0,8.38263
1.46,545.786,269.595,114.211,104.59,-120,0,8.38904
1.48,547.831,269.896,116.278,102.19,-120,0,8.39931
1.5,549.829,270.192,118.298,99.79,-120,0,8.41257
1.52,551.78,270.48,120.27,97.39,-120,0,8.42807
1.54,553.683,270.763,122.194,94.99,-120,0,8.44511
1.56,555.538,271.038,124.07,92.59,-120,0,8.46316
1.58,557.346,271.308,125.897,90.19,-120,0,8.48179
1.6,559.106,271.571,127.677,87.79,-120,0,8.50062
1.62,560.819,271.827,129.409,85.39,-120,0,8.51936
1.64,562.484,272.076,131.093,82.99,-120,0,8.5378
1.66,564.102,272.32,132.729,80.59,-120,0,8.55573
1.68,565.672,272.556,134.316,78.19,-120,0,8.57302
1.7,567.195,272.786,135.856,75.79,-120,0,8.58955
1.72,568.67,273.009,137.348,73.39,-120,0,8.60525
1.74,570.097,273.225,138.792,70.99,-120,0,8.62006
1.76,571.477,273.434,140.188,68.59,-120,0,8.63394
1.78,572.81,273.637,141.535,66.19,-120,0,8.64688
1.8,574.095,273.832,142.835,63.79,-120,0,8.65886
1.82,575.332,274.021,144.087,61.39,-120,0,8.66988
1.84,576.522,274.203,145.291,58.99,-120,0,8.67996
1.86,577.665,274.377,146.447,56.59,-120,0,8.68915
1.88,578.76,274.545,147.554,54.19,-120,0,8.69742
1.9,579.808,274.705,148.614,51.79,-120,0,8.70488
1.92,580.808,274.858,149.626,49.39,-120,0,8.71147
1.94,581.76,275.004,150.59,46.99,-120,0,8.71732
1.96,582.666,275.143,151.506,44.59,-120,0,8.72246
1.98,583.523,275.275,152.373,42.19,-120,0,8.72692
2,584.334,275.399,153.193,39.79,-120,0,8.73073
2.02,585.096,275.516,153.965,37.39,-120,0,8.73397
2.04,585.812,275.626,154.689,34.99,-120,0,8.7367
2.06,586.48,275.729,155.365,32.59,-120,0,8.73897
2.08,587.1,275.824,155.992,30.19,-120,0,8.74081
2.1,587.673,275.912,156.572,27.79,-120,0,8.74225
2.12,588.199,275.993,157.104,25.39,-120,0,8.74339
2.14,588.677,276.067,157.588,22.99,-120,0,8.74431
2.16,589.108,276.133,158.024,20.59,-120,0,8.74492
2.18,589.491,276.192,158.411,18.19,-120,0,8.7454
2.2,589.827,276.244,158.751,15.79,-120,0,8.74569
2.22,590.115,276.288,159.043,13.39,-120,0,8.74594
2.24,590.356,276.325,159.287,10.99,-120,0,8.74601
2.26,590.55,276.355,159.483,8.59,-120,0,8.74607
2.28,590.696,276.377,159.63,6.19,-120,0,8.74611
2.3,590.795,276.392,159.73,3.79,-120,0,8.74614
2.32,590.845,276.4,159.781,1.39,-120,0,8.74616
