"time","x","y","position","velocity","acceleration","jerk","heading"
0,436.45,236.056,0,0,0,0,13.0021
0.02,436.474,236.061,0.0245153,1.22577,61.2883,3064.41,13.0021
0.04,436.544,236.078,0.09655,3.60174,118.799,2875.51,13.0021
0.06,436.66,236.105,0.215629,5.95396,117.611,-59.3604,13.002
0.08,436.824,236.142,0.383751,8.4061,122.607,249.776,13.002
0.1,437.035,236.191,0.600345,10.8297,121.178,-71.4257,13.0019
0.12,437.292,236.25,0.863987,13.1821,117.622,-177.792,13.0017
0.14,437.595,236.321,1.17608,15.6047,121.131,175.439,13.0013
0.16,437.946,236.402,1.53622,18.0069,120.11,-51.0771,13.0009
0.18,438.343,236.493,1.94334,20.3562,117.462,-132.385,13.0001
0.2,438.787,236.595,2.39894,22.7798,121.183,186.024,12.9992
0.22,439.279,236.708,2.90345,25.2254,122.279,54.8204,12.9978
0.24,439.815,236.832,3.45421,27.5382,115.64,-331.93,12.9961
0.26,440.4,236.967,4.05409,29.994,122.787,357.346,12.9938
0.28,441.03,237.113,4.70116,32.3533,117.969,-240.889,12.991
0.3,441.709,237.269,5.39712,34.7979,122.226,212.81,12.9876
0.32,442.433,237.437,6.1404,37.1642,118.316,-195.496,12.9833
0.34,443.203,237.614,6.9306,39.5101,117.299,-50.8614,12.9783
0.36,444.02,237.802,7.76959,41.9493,121.957,232.928,12.9722
0.38,444.884,238.001,8.65565,44.3033,117.699,-212.912,12.9651
0.4,445.794,238.21,9.58973,46.7038,120.028,116.444,12.9568
0.42,446.751,238.431,10.5718,49.1022,119.92,-5.38466,12.9471
0.44,447.755,238.661,11.6016,51.4894,119.359,-28.0289,12.936
0.46,448.805,238.903,12.6793,53.8856,119.812,22.6263,12.9233
0.48,449.901,239.154,13.8036,56.2187,116.654,-157.885,12.9087
0.5,451.045,239.415,14.9767,58.6504,121.583,246.438,12.8923
0.52,452.234,239.687,16.1965,60.9914,117.051,-226.604,12.8737
0.54,453.469,239.97,17.4641,63.379,119.38,116.476,12.8527
0.56,454.751,240.262,18.7789,65.7433,118.213,-58.3647,12.8292
0.58,456.08,240.564,20.1412,68.1155,118.61,19.821,12.8029
0.6,457.455,240.877,21.5512,70.4955,119.002,19.6287,12.7735
0.62,458.875,241.198,23.0072,72.8036,115.404,-179.921,12.7409
0.64,460.342,241.529,24.5115,75.216,120.619,260.763,12.7047
0.66,461.856,241.87,26.063,77.5753,117.966,-132.666,12.6645
0.68,463.415,242.22,27.6615,79.9215,117.31,-32.7622,12.6201
0.7,465.021,242.579,29.3067,82.2624,117.045,-13.2951,12.571
0.72,466.674,242.947,30.9997,84.6489,119.326,114.097,12.5169
0.74,468.371,243.323,32.7383,86.9314,114.125,-260.054,12.4572
0.76,470.115,243.707,34.5243,89.2965,118.256,206.532,12.3915
0.78,471.905,244.098,36.3564,91.6087,115.607,-132.453,12.3194
0.8,473.741,244.499,38.2359,93.9729,118.211,130.216,12.2402
0.82,475.623,244.905,40.1609,96.2512,113.914,-214.863,12.1534
0.84,477.551,245.318,42.1328,98.5922,117.049,156.767,12.0583
0.86,479.524,245.738,44.1499,100.858,113.3,-187.489,11.9544
0.88,481.543,246.164,46.2135,103.178,116.011,135.555,11.8412
0.9,483.608,246.594,48.3228,105.468,114.46,-77.526,11.7177
0.92,485.719,247.03,50.478,107.757,114.488,1.40775,11.5839
0.94,487.875,247.469,52.6788,110.04,114.138,-17.5435,11.4391
0.96,490.078,247.912,54.9258,112.349,115.465,66.3575,11.283
0.98,492.326,248.357,57.217,114.563,110.663,-240.084,11.1157
1,494.621,248.803,59.5554,116.917,117.695,351.599,10.9374
1.02,496.939,249.248,61.9151,117.984,53.3821,-3215.64,10.7506
1.04,499.256,249.684,64.2731,117.904,-4.026,-2870.4,10.5587
1.06,501.575,250.111,66.6308,117.882,-1.09164,146.718,10.3633
1.08,503.895,250.532,68.9888,117.903,1.07178,108.171,10.1666
1.1,506.216,250.945,71.3467,117.894,-0.468749,-77.0265,9.97102
1.12,508.54,251.348,73.7048,117.904,0.479505,47.4127,9.77899
1.14,510.866,251.746,76.065,118.009,5.26451,239.25,9.5931
1.16,513.195,252.135,78.4267,118.086,3.86307,-70.0717,9.41599
1.18,515.529,252.52,80.7918,118.254,8.38269,225.981,9.24984
1.2,517.866,252.896,83.1583,118.329,3.74047,-232.111,9.0966
1.22,520.206,253.269,85.5282,118.496,8.39156,232.555,8.95802
1.24,522.551,253.636,87.9016,118.665,8.44654,2.74914,8.83487
1.26,524.9,253.998,90.2785,118.85,9.22147,38.7464,8.72781
1.28,527.254,254.357,92.6594,119.042,9.625,20.1766,8.63684
1.3,529.611,254.714,95.0432,119.188,7.30686,-115.907,8.56152
1.32,531.971,255.068,97.4297,119.327,6.91188,-19.7493,8.5011
1.34,534.331,255.419,99.8158,119.307,-0.99837,-395.512,8.45465
1.36,536.654,255.764,102.164,117.417,-94.4811,-4674.14,8.4212
1.38,538.932,256.1,104.467,115.148,-113.45,-948.437,8.39903
1.4,541.165,256.43,106.725,112.874,-113.709,-12.958,8.3863
1.42,543.352,256.753,108.935,110.532,-117.088,-168.925,8.38133
1.44,545.492,257.068,111.099,108.167,-118.255,-58.3771,8.38263
1.46,547.588,257.377,113.217,105.903,-113.204,252.529,8.38904
1.48,549.635,257.678,115.286,103.462,-122.027,-441.123,8.39931
1.5,551.636,257.975,117.309,101.133,-116.454,278.631,8.41257
1.52,553.59,258.263,119.284,98.7742,-117.955,-75.016,8.42807
1.54,555.497,258.547,121.212,96.38,-119.706,-87.5852,8.44511
1.56,557.356,258.822,123.091,93.9582,-121.092,-69.2747,8.46316
1.58,559.168,259.093,124.923,91.6032,-117.748,167.209,8.48179
1.6,560.932,259.357,126.706,89.18,-121.161,-170.658,8.50062
1.62,562.649,259.613,128.443,86.8031,-118.845,115.815,8.51936
1.64,564.318,259.863,130.13,84.3745,-121.43,-129.284,8.5378
1.66,565.939,260.107,131.77,82.008,-118.328,155.098,8.55573
1.68,567.513,260.344,133.362,79.5683,-121.985,-182.844,8.57302
1.7,569.04,260.575,134.905,77.1916,-118.833,157.608,8.58955
1.72,570.518,260.798,136.401,74.7573,-121.715,-144.101,8.60525
1.74,571.948,261.015,137.847,72.3224,-121.747,-1.6112,8.62006
1.76,573.331,261.224,139.246,69.9364,-119.297,122.518,8.63394
1.78,574.667,261.427,140.597,67.5579,-118.927,18.5055,8.64688
1.8,575.954,261.623,141.899,65.1147,-122.16,-161.671,8.65886
1.82,577.194,261.812,143.153,62.6865,-121.408,37.6121,8.66988
1.84,578.386,261.994,144.359,60.3005,-119.302,105.311,8.67996
1.86,579.531,262.169,145.517,57.9075,-119.652,-17.5142,8.68915
1.88,580.628,262.337,146.627,55.4798,-121.385,-86.6299,8.69742
1.9,581.677,262.497,147.688,53.0876,-119.61,88.7397,8.70488
1.92,582.679,262.65,148.701,50.6529,-121.735,-106.275,8.71147
1.94,583.632,262.797,149.666,48.2196,-121.665,3.51697,8.71732
1.96,584.539,262.936,150.584,45.8854,-116.706,247.927,8.72246
1.98,585.397,263.068,151.452,43.4034,-124.103,-369.836,8.72692
2,586.209,263.192,152.273,41.0623,-117.053,352.491,8.73073
2.02,586.971,263.309,153.044,38.5814,-124.044,-349.559,8.73397
2.04,587.688,263.419,153.769,36.2494,-116.599,372.294,8.7367
2.06,588.356,263.522,154.446,33.8192,-121.513,-245.741,8.73897
2.08,588.977,263.617,155.073,31.3816,-121.877,-18.1921,8.74081
2.1,589.55,263.705,155.654,29.0014,-119.01,143.34,8.74225
2.12,590.076,263.787,156.186,26.6223,-118.956,2.70444,8.74339
2.14,590.555,263.861,156.67,24.1946,-121.384,-121.363,8.74431
2.16,590.986,263.927,157.106,21.8078,-119.342,102.075,8.74492
2.18,591.369,263.986,157.494,19.3811,-121.336,-99.6882,8.7454
2.2,591.705,264.038,157.834,17.0031,-118.897,121.958,8.74569
2.22,591.993,264.082,158.125,14.5698,-121.667,-138.525,8.74594
2.24,592.234,264.119,158.369,12.1919,-118.892,138.76,8.74601
2.26,592.428,264.149,158.565,9.81594,-118.8,4.60463,8.74607
2.28,592.574,264.171,158.713,7.38284,-121.655,-142.748,8.74611
2.3,592.673,264.186,158.813,5.00682,-118.801,142.687,8.74614
2.32,592.723,264.194,158.864,2.53201,-123.74,-246.956,8.74616
